***Scan Config Information***,,,,,,,***Reference Scan Information***,,,,,,,,
Scan Config Name:,Column 1,,,,,,Scan Config Name:,Local New Reference,,,,,,,
Scan Config Type:,Slew,Num Section:,1,,,,Scan Config Type:,Slew,Num Section:,1,,,,,
Section Config Type:,Column,,,,,,Section Config Type:,Column,,,,,,,
Start Wavelength (nm):,900,,,,,,Start Wavelength (nm):,900,,,,,,,
End Wavelength (nm):,1700,,,,,,End Wavelength (nm):,1700,,,,,,,
Pattern Width (nm):,7.03,,,,,,Pattern Width (nm):,7.03,,,,,,,
Exposure (ms):,0.635,,,,,,Exposure (ms):,0.635,,,,,,,
Digital Resolution:,228,,,,,,Digital Resolution:,228,,,,,,,
Num Repeats:,3,,,,,,Num Repeats:,3,,,,,,,
PGA Gain:,64,(FixedPGA),,,,,PGA Gain:,64,(AutoPGA),,,,,,
System Temp (C):,32.59,,,,,,System Temp (C):,29.46,,,,,,,
Humidity (%):,46.49,,,,,,Humidity (%):,52.02,,,,,,,
Lamp Indicator:,1125,,,,,,Lamp Indicator:,1099,,,,,,,
Data Date-Time:,2025/08/09T13:35:26,,,,,,Data Date-Time:,2025/08/09T13:22:04,,,,,,,
Total Measurement Time in sec:,2.4232188,,,,,,,,,,,,,,
,,,,,,,,,,,,,,,
***General Information***,,,,,,,***Calibration Coefficients***,,,,,,,,
Model Name:,NIR-R210,,,,,,Shift Vector Coefficients:,-5.72686255341989,0.0566949379947153,-0.000136804211203387,,,,,
Serial Number:,734R012,(N/A),,,,,Pixel to Wavelength Coefficients:,1812.09528251196,-0.912948081806683,-0.000238884275033469,,,,,
GUI Version:,3.9.8,Revision:,830,,,,Versions (Cal/Ref/Cfg):,1,3,1,,,,,
TIVA Version:,2.4.10,,,,,,***Lamp Usage ***,,,,,,,,
DLPC Version:,2.0.0,,,,,,Total Time(hh:mm:ss):,N/A,,,,,,,
UUID:,D6:65:30:51:9A:41:0D:28,,,,,,***Device/Error/Activation Status***,,,,,,,,
Main Board Version:,D,,,,,,Device Status:,0x00000001,Activation Status:,Not activated,,,,,
Detector Board Version:,B,,,,,,Error status:,0x00000000,Error Code:,0x00000000000000000000000000000000,,,,,
,,,,,,,,,Error Details:,Not found,,,,,
***Scan Data***,,,,,,,,,,,,,,,
Num Scan:,3

Wavelength (nm),Absorbance (AU),Reference Signal (unitless),Sample Signal (unitless)
900.894453969064,0.407493741919931,61165,23933.6666666667
904.808608847648,0.403269391906802,71524,28260.6666666667
910.020793259393,0.408855070782166,81743,31885.6666666667
913.924914998427,0.405894309230168,88693,34833.3333333333
917.82473682051,0.410841164560948,96017,37282.6666666667
921.720258725642,0.413040309744951,105300,40680.6666666667
925.611480713823,0.414789615560869,115956,44617.3333333333
929.498402785054,0.414138734830532,129721,49988.6666666667
933.381024939334,0.415589967118888,145333,55818
937.259347176664,0.413217460933397,161102,62213.3333333333
941.133369497043,0.414348840043787,176880,68128.6666666667
945.003091900472,0.409760236303902,190875,74300
948.86851438695,0.412169554388798,204873,79307.6666666667
954.015722275886,0.412825330497488,222646,86057.6666666667
957.871111622812,0.417175174574908,236435,90476.6666666667
961.722201052788,0.419094594592124,250209,95325.3333333333
965.568990565813,0.422563815015049,265026,100167
969.411480161888,0.425224497002783,277918,104398
973.249669841012,0.427424000108317,291257,108856
977.083559603186,0.430647703353967,304760,113060.333333333
980.913149448408,0.433315548783601,316097,116548
984.738439376681,0.435523300666159,326323,119708.333333333
988.559429388003,0.434880046627365,334592,122923.666666667
993.64739397673,0.438789337108048,344807,125541.333333333
997.458350848501,0.437543115900004,349688,127684.333333333
1001.26500780332,0.439126122616968,353644,128659
1005.06736484119,0.438678915760707,357116,130056
1008.86542196211,0.437909167222616,359485,131151
1012.65917916608,0.436989734641053,360943,131962
1016.44863645309,0.436267347993252,363031,132946.333333333
1020.23379382316,0.43741633239694,363948,132930
1024.01465127628,0.435474165056192,364282,133648.333333333
1027.79120881244,0.435152441255576,365769,134293.333333333
1032.81993010096,0.432911609748861,367653,135683.333333333
1036.58645449757,0.434192694470066,369308,135892.666666667
1040.34867897724,0.431311541500599,370049,137071.666666667
1044.10660353995,0.431129540893604,372221,137934
1047.86022818571,0.429887266577719,373567,138829.333333333
1051.60955291452,0.428883009050191,375404,139835
1055.35457772639,0.428030891625304,377310,140821
1059.0953026213,0.426600970695938,379148,141973.666666667
1062.83172759926,0.425197857102898,381319,143248.666666667
1066.56385266027,0.423848700159692,384184,144774
1071.53333064858,0.423962605112624,387908,146139
1075.25542257003,0.422566382776896,390607,147629.666666667
1078.97321457454,0.42209546521556,393646,148939.666666667
1082.6867066621,0.420963212896167,396671,150476
1086.3958988327,0.422191855450952,399870,151261
1090.10079108636,0.421606255162912,402904,152614.333333333
1093.80138342306,0.420044406838229,405606,154191.333333333
1097.49767584282,0.41939518579738,407871,155284.333333333
1101.18966834562,0.42006857513203,411381,156378
1104.87736093148,0.420093897157798,413721,157258.333333333
1108.56075360038,0.41865523826548,415453,158440.666666667
1113.46525506588,0.420459483414512,418471,158930
1117.13861459523,0.420486416550587,419674,159377
1120.80767420763,0.420564814654604,421639,160094.333333333
1124.47243390308,0.423703202136249,423459,159627.666666667
1128.13289368158,0.424750612268211,424228,159532.333333333
1131.78905354313,0.428986198067788,426045,158660.666666667
1135.44091348773,0.432561848761685,426478,157519.666666667
1139.08847351537,0.438173097367472,427601,155907
1142.73173362607,0.446585178329679,428210,153134
1146.37069381982,0.454490369868325,430333,151117.333333333
1151.21595198511,0.465328876425875,431572,147817
1154.84487903931,0.47426322864287,433166,145342
1158.46950617655,0.482378701413765,435811,143522.333333333
1162.08983339684,0.490410587957716,437511,141442
1165.70586070019,0.497782094523292,440470,140002
1169.31758808658,0.506127386968457,443261,138207.666666667
1172.92501555602,0.514007247387255,446330,136662.333333333
1176.52814310851,0.519761703297102,450024,135979.666666667
1180.12697074405,0.528573695508422,453937,134407
1183.72149846264,0.534335307108322,458109,133854.666666667
1188.50751332773,0.542283375080637,464689,133315
1192.09200790677,0.545237092051115,470015,133929
1195.67220256885,0.548545847731268,476072,134625.333333333
1199.24809731399,0.549252241392908,482088,136105
1202.81969214218,0.54940934564233,488677,137915.333333333
1206.38698705341,0.548517009439354,496329,140363
1209.9499820477,0.546016172387483,503908,143329.333333333
1213.50867712503,0.543707720438066,511433,146245
1217.06307228542,0.540207626003722,519363,149714.333333333
1220.61316752885,0.536214261487358,528308,153699.666666667
1224.15896285534,0.531332993266297,536018,157705.333333333
1228.88000119761,0.525075558331411,547278,163355
1232.41576338454,0.523293881559368,557050,166955.333333333
1235.94722565453,0.519479249745646,566065,171154
1239.47438800756,0.516966974774003,575725,175084.666666667
1242.99725044364,0.514165003925216,584235,178822.666666667
1246.51581296276,0.512118280430052,594054,182687
1250.03007556494,0.509944281450056,602549,186229.333333333
1253.54003825017,0.509127495500473,612257,189586
1257.04570101845,0.508017725477825,621056,192802.666666667
1260.54706386978,0.50732761469902,630966,196190.666666667
1265.20885891184,0.506528812413992,643606,200489.333333333
1268.70018862362,0.506886985881201,652183,202993.666666667
1272.18721841844,0.505986991817557,661425,206297.333333333
1275.66994829632,0.506154302509484,669244,208655.666666667
1279.14837825724,0.505461974492071,677027,211419
1282.62250830122,0.505402248242037,683423,213445.666666667
1286.09233842824,0.504651790102807,689796,215808.666666667
1289.55786863831,0.503343791439243,695579,218274.333333333
1293.01909893143,0.502584340054497,699163,219783
1296.4760293076,0.503480357471406,703715,220758
1301.07858104946,0.503411071215202,709736,222682.333333333
1304.52547828608,0.504493774007712,713970,223453
1307.96807560575,0.505506888121308,717163,223929.333333333
1311.40637300847,0.507961921843763,719966,223537.333333333
1314.84037049424,0.510080613927061,722284,223165.666666667
1318.27006806305,0.513718288117402,725225,222205.333333333
1321.69546571492,0.517665490694355,727780,220970.666666667
1325.11656344983,0.522402674449448,730006,219242
1328.5333612678,0.528714029398158,732700,216876.333333333
1331.94585916881,0.533671136788695,734345,214896.333333333
1336.48916761047,0.544230176362538,736319,210298.333333333
1339.89163237193,0.552581784826657,737558,206640
1343.28979721644,0.561022715048033,738142,202823
1346.683662144,0.570037593233835,738619,198784.666666667
1350.07322715461,0.58031654933881,738629,194137.666666667
1353.45849224827,0.590230468002005,737833,189551.666666667
1356.83945742498,0.59733378695006,736434,186123
1360.21612268474,0.608128474690089,736474,181563.666666667
1363.58848802755,0.615680872164321,735327,178155.666666667
1366.95655345341,0.624371721395352,735097,174571.333333333
1370.32031896232,0.631787739879518,734900,171569.666666667
1374.79865088116,0.642979112750444,735706,167388.333333333
1378.15238325052,0.652557969486678,734943,163567
1381.50181570292,0.661298299739098,732762,159832.333333333
1384.84694823838,0.673513062606415,731846,155205.333333333
1388.18778085688,0.687418419823943,730676,150074.333333333
1391.52431355844,0.706225237580369,728938,143372.333333333
1394.85654634304,0.726409663686784,727102,136516.666666667
1398.18447921069,0.750634773341049,724362,128623.666666667
1401.50811216139,0.776172044826641,722247,120924.333333333
1404.82744519514,0.803187122773799,719566,113209.666666667
1409.24653381378,0.83948352859766,716272,103656
1412.55583370798,0.867345417029083,714694,97000.6666666667
1415.86083368523,0.89281402594523,713042,91264.3333333333
1419.16153374553,0.917465511181506,711262,86013
1422.45793388888,0.94093475984364,710137,81359.3333333333
1425.75003411527,0.960645397958467,709598,77690.3333333333
1429.03783442472,0.979832079573463,708041,74169.6666666667
1432.32133481722,0.99756513718134,708142,71212.3333333333
1435.60053529276,1.01106288890861,706756,68898
1438.87543585136,1.01938491260232,707115,67624.6666666667
1443.23528116978,1.03022958378281,706912,65938
1446.50014858883,1.037712284483,705956,64724
1449.76071609092,1.03967332040681,705433,64384.6666666667
1453.01698367606,1.04764088755534,705077,63182.3333333333
1456.26895134425,1.04865979118131,703933,62932
1459.5166190955,1.0531718080623,702932,62193
1462.75998692979,1.05437253499684,700832,61836
1465.99905484713,1.05577872556559,698515,61432.3333333333
1469.23382284752,1.05550852058321,696323,61277.6666666667
1472.46429093096,1.05539344902279,693306,61028.3333333333
1476.76489294917,1.05655008308223,689657,60545.6666666667
1479.98532789306,1.0552951947936,686838,60472.6666666667
1483.20146292,1.05777031346587,684443,59919.3333333333
1486.41329802998,1.05230289503792,680351,60315.6666666667
1489.62083322302,1.05337240273864,676729,59847
1492.8240684991,1.04928283231223,673732,60145.6666666667
1496.02300385824,1.04905545766446,669890,59834
1499.21763930042,1.04486033549615,665764,60042.6666666667
1502.40797482566,1.04444214065436,662328,59790.3333333333
1505.59401043394,1.03988268076612,658060,60032
1508.77574612527,1.03670441276097,653668,60069.3333333333
1513.01137162068,1.02969265471115,647807,60499.6666666667
1516.18307417246,1.03367652380514,642776,59481.6666666667
1519.35047680729,1.02717827047057,636853,59822
1522.51357952517,1.02631497861224,631257,59414.3333333333
1525.6723823261,1.02013896771721,626083,59771.3333333333
1528.82688521008,1.01926726839679,619667,59277.6666666667
1531.9770881771,1.01572076381393,614140,59230.6666666667
1535.12299122718,1.01364411900892,607382,58859.6666666667
1538.26459436031,1.01382885745553,601756,58289.6666666667
1541.40189757648,1.01029297918535,594204,58028.6666666667
1545.57827977168,1.00854953211098,584861,57346
1548.70554984831,1.0064756711569,578079,56952.3333333333
1551.82852000798,1.00555094180444,571488,56423
1554.94719025071,1.00320333129218,563266,55912.6666666667
1558.06156057648,1.00165186010344,555713,55360.3333333333
1561.1716309853,1.00119225582879,547023,54552.3333333333
1564.27740147717,1.00178044616964,540016,53780.6666666667
1567.37887205209,1.00143564767852,531678,52992.3333333333
1570.47604271006,1.00017578990129,523035,52282.3333333333
1573.56891345108,0.999060639642719,514017,51513
1577.68605234607,0.997111040843584,502079,50543
1580.76888994754,0.997299938691201,494135,49721.6666666667
1583.84742763206,0.996868868690294,484769,48827.6666666667
1586.92166539963,0.988661533833488,475460,48803.6666666667
1589.99160325024,0.991529242348908,466116,47529.6666666667
1593.05724118391,0.989035028943283,456969,46865.3333333333
1596.11857920063,0.980410742571237,447506,46815.3333333333
1599.17561730039,0.979675286787676,439245,46029
1602.2283554832,0.974652552542959,429113,45490.3333333333
1605.27679374907,0.968670680682058,419968,45138.3333333333
1609.33468934385,0.961890841456797,407521,44489.6666666667
1612.37309447016,0.959554107461055,398489,43738.3333333333
1615.40719967952,0.955119108538651,389802,43224
1618.43700497194,0.950408984001729,380551,42658.3333333333
1621.4625103474,0.947437772252187,371710,41953.3333333333
1624.48371580591,0.942497683991992,362463,41377.6666666667
1627.50062134746,0.938724458016436,353431,40698.6666666667
1630.51322697207,0.93755851549943,344400,39765.3333333333
1633.52153267973,0.932815855440319,335271,39136.3333333333
1636.52553847044,0.928377694737253,325918,38435.3333333333
1639.52524434419,0.923864620248975,316982,37772
1643.51816341617,0.922843075694375,305331,36469.3333333333
1646.50783615037,0.916917355442416,295134,35735.6666666667
1649.49320896763,0.914587502908721,285124,34709.3333333333
1652.47428186793,0.913074146645108,274811,33570.6666666667
1655.45105485129,0.90593782986477,264180,32806.6666666667
1658.42352791769,0.901266552537093,250984,31505
1661.39170106714,0.897469794104883,235469,29817
1664.35557429964,0.887892875746677,216668,28048
1667.31514761519,0.885627568084567,196183,25529
1670.27042101379,0.870073688993074,174581,23546.3333333333
1674.20409678556,0.860632257837768,143952,19842
1677.14933704461,0.862684466153394,123337,16920.3333333333
1680.09027738671,0.860791786426968,105172,14491.3333333333
1683.02691781185,0.852240487532888,88996,12506.3333333333
1685.95925832005,0.880115439642705,75582,9961
1688.8872989113,0.871138199086426,63863,8592.33333333333
1691.81103958559,0.90531302556087,55494,6901.33333333333
1694.73048034294,0.896614506572356,47752,6058.66666666667
1697.64562118333,0.924467441663887,41556,4945
1700.55646210678,0.906548958998345,35632,4418.66666666667
