***Scan Config Information***,,,,,,,***Reference Scan Information***,,,,,,,,
Scan Config Name:,Column 1,,,,,,Scan Config Name:,Local New Reference,,,,,,,
Scan Config Type:,Slew,Num Section:,1,,,,Scan Config Type:,Slew,Num Section:,1,,,,,
Section Config Type:,Column,,,,,,Section Config Type:,Column,,,,,,,
Start Wavelength (nm):,900,,,,,,Start Wavelength (nm):,900,,,,,,,
End Wavelength (nm):,1700,,,,,,End Wavelength (nm):,1700,,,,,,,
Pattern Width (nm):,7.03,,,,,,Pattern Width (nm):,7.03,,,,,,,
Exposure (ms):,0.635,,,,,,Exposure (ms):,0.635,,,,,,,
Digital Resolution:,228,,,,,,Digital Resolution:,228,,,,,,,
Num Repeats:,3,,,,,,Num Repeats:,3,,,,,,,
PGA Gain:,64,(FixedPGA),,,,,PGA Gain:,64,(AutoPGA),,,,,,
System Temp (C):,32.83,,,,,,System Temp (C):,29.46,,,,,,,
Humidity (%):,45.98,,,,,,Humidity (%):,52.02,,,,,,,
Lamp Indicator:,1128,,,,,,Lamp Indicator:,1099,,,,,,,
Data Date-Time:,2025/08/09T13:36:59,,,,,,Data Date-Time:,2025/08/09T13:22:04,,,,,,,
Total Measurement Time in sec:,2.4222041,,,,,,,,,,,,,,
,,,,,,,,,,,,,,,
***General Information***,,,,,,,***Calibration Coefficients***,,,,,,,,
Model Name:,NIR-R210,,,,,,Shift Vector Coefficients:,-5.72686255341989,0.0566949379947153,-0.000136804211203387,,,,,
Serial Number:,734R012,(N/A),,,,,Pixel to Wavelength Coefficients:,1812.09528251196,-0.912948081806683,-0.000238884275033469,,,,,
GUI Version:,3.9.8,Revision:,830,,,,Versions (Cal/Ref/Cfg):,1,3,1,,,,,
TIVA Version:,2.4.10,,,,,,***Lamp Usage ***,,,,,,,,
DLPC Version:,2.0.0,,,,,,Total Time(hh:mm:ss):,N/A,,,,,,,
UUID:,D6:65:30:51:9A:41:0D:28,,,,,,***Device/Error/Activation Status***,,,,,,,,
Main Board Version:,D,,,,,,Device Status:,0x00000001,Activation Status:,Not activated,,,,,
Detector Board Version:,B,,,,,,Error status:,0x00000000,Error Code:,0x00000000000000000000000000000000,,,,,
,,,,,,,,,Error Details:,Not found,,,,,
***Scan Data***,,,,,,,,,,,,,,,
Num Scan:,3

Wavelength (nm),Absorbance (AU),Reference Signal (unitless),Sample Signal (unitless)
900.894453969064,0.38007067702222,61165,25493.6666666667
904.808608847648,0.378921036244095,71524,29890.3333333333
910.020793259393,0.378449864469659,81743,34198
913.924914998427,0.387038588120462,88693,36379
917.82473682051,0.38095457048286,96017,39938.6666666667
921.720258725642,0.38985973571547,105300,42911
925.611480713823,0.386817067508977,115956,47585.6666666667
929.498402785054,0.38912791984561,129721,52952
933.381024939334,0.388892295588315,145333,59357
937.259347176664,0.388800242332343,161102,65811.3333333333
941.133369497043,0.386817887705054,176880,72587.3333333333
945.003091900472,0.384529739547123,190875,78744.3333333333
948.86851438695,0.386387600800864,204873,84158.3333333333
954.015722275886,0.386333052746042,222646,91470.6666666667
957.871111622812,0.388611772257755,236435,96627.3333333333
961.722201052788,0.390637635990571,250209,101780.666666667
965.568990565813,0.395103711729537,265026,106705
969.411480161888,0.39621097352582,277918,111610.666666667
973.249669841012,0.399490289815965,291257,116087.666666667
977.083559603186,0.402772737517421,304760,120555
980.913149448408,0.405167599491822,316097,124352
984.738439376681,0.408807909499286,326323,127303.333333333
988.559429388003,0.409420065864166,334592,130345.333333333
993.64739397673,0.410234746740958,344807,134073
997.458350848501,0.410715937195758,349688,135820.333333333
1001.26500780332,0.411796065984762,353644,137015.666666667
1005.06736484119,0.410703624060371,357116,138709.333333333
1008.86542196211,0.410122864948364,359485,139816.333333333
1012.65917916608,0.40940285445595,360943,140616.333333333
1016.44863645309,0.409702182938124,363031,141332.333333333
1020.23379382316,0.409202853234484,363948,141852.333333333
1024.01465127628,0.407071567805144,364282,142681
1027.79120881244,0.40579244011369,365769,143686
1032.81993010096,0.404720542851912,367653,144783
1036.58645449757,0.403959965848246,369308,145689.666666667
1040.34867897724,0.402808151136213,370049,146369.666666667
1044.10660353995,0.402644318252982,372221,147284.333333333
1047.86022818571,0.401064365237218,373567,148355.666666667
1051.60955291452,0.400353769564333,375404,149329.333333333
1055.35457772639,0.400553014407718,377310,150018.666666667
1059.0953026213,0.398587287336797,379148,151433.333333333
1062.83172759926,0.397646644269412,381319,152630.666666667
1066.56385266027,0.39688414944608,384184,154047.666666667
1071.53333064858,0.396085097673372,387908,155827.333333333
1075.25542257003,0.394492554175692,390607,157488
1078.97321457454,0.393341953688643,393646,159134.333333333
1082.6867066621,0.393478867324226,396671,160306.666666667
1086.3958988327,0.393308188887237,399870,161663
1090.10079108636,0.393478714044975,402904,162825.666666667
1093.80138342306,0.392477380653099,405606,164296
1097.49767584282,0.392695093441069,407871,165130.666666667
1101.18966834562,0.392361606277318,411381,166679.666666667
1104.87736093148,0.39359685444748,413721,167151.666666667
1108.56075360038,0.392190128113465,415453,168396
1113.46525506588,0.392311224365547,418471,169572
1117.13861459523,0.393235340356157,419674,169698
1120.80767420763,0.393225731084434,421639,170496.333333333
1124.47243390308,0.394654179105533,423459,170670
1128.13289368158,0.39639743262711,424228,170295
1131.78905354313,0.40039937645653,426045,169455.666666667
1135.44091348773,0.403871871944452,426478,168277
1139.08847351537,0.409217758311456,427601,166656
1142.73173362607,0.415695117695659,428210,164422.666666667
1146.37069381982,0.423730596677045,430333,162208.666666667
1151.21595198511,0.434399716191413,431572,158728
1154.84487903931,0.442229754544576,433166,156467.666666667
1158.46950617655,0.451040168535275,435811,154261.666666667
1162.08983339684,0.458609518117315,437511,152187.666666667
1165.70586070019,0.465991403605095,440470,150634.666666667
1169.31758808658,0.47222947575168,443261,149427.333333333
1172.92501555602,0.480057070099722,446330,147774.333333333
1176.52814310851,0.486786812727364,450024,146706.333333333
1180.12697074405,0.492857944835563,453937,145927.666666667
1183.72149846264,0.498896538180761,458109,145235.333333333
1188.50751332773,0.5064778179473,464689,144772
1192.09200790677,0.508965257414655,470015,145595
1195.67220256885,0.512410502474695,476072,146306
1199.24809731399,0.513253101464756,482088,147867.666666667
1202.81969214218,0.513311055521265,488677,149868.666666667
1206.38698705341,0.511817812845129,496329,152739.666666667
1209.9499820477,0.510976633618947,503908,155372.666666667
1213.50867712503,0.508462745709745,511433,158608.333333333
1217.06307228542,0.504671096374778,519363,162480
1220.61316752885,0.500849994587584,528308,166739
1224.15896285534,0.495618962858667,536018,171222.333333333
1228.88000119761,0.490764215202574,547278,176784.333333333
1232.41576338454,0.48748280048486,557050,181305.666666667
1235.94722565453,0.485334768031324,566065,185153.333333333
1239.47438800756,0.48224163209604,575725,189659
1242.99725044364,0.479658290486394,584235,193610.666666667
1246.51581296276,0.477103709417344,594054,198026
1250.03007556494,0.476075248065565,602549,201334
1253.54003825017,0.474506028932615,612257,205318.333333333
1257.04570101845,0.472881974936196,621056,209049.333333333
1260.54706386978,0.472972099348103,630966,212341
1265.20885891184,0.472405252014413,643606,216877.666666667
1268.70018862362,0.472726590987338,652183,219605.333333333
1272.18721841844,0.472310791224607,661425,222930.666666667
1275.66994829632,0.471888758872595,669244,225785.333333333
1279.14837825724,0.471260074767172,677027,228742
1282.62250830122,0.470780035993439,683423,231158.333333333
1286.09233842824,0.470373653054969,689796,233532.333333333
1289.55786863831,0.469902743338796,695579,235745.666666667
1293.01909893143,0.468551082533255,699163,237699
1296.4760293076,0.468773036061428,703715,239124.333333333
1301.07858104946,0.469533545296147,709736,240748.333333333
1304.52547828608,0.470648949916707,713970,241563.333333333
1307.96807560575,0.471731927217668,717163,242039.333333333
1311.40637300847,0.473315404294435,719966,242101
1314.84037049424,0.475943743586823,722284,241415
1318.27006806305,0.479209034050552,725225,240582.333333333
1321.69546571492,0.482937049416103,727780,239366.333333333
1325.11656344983,0.487531785192393,730006,237571.666666667
1328.5333612678,0.493168933720654,732700,235373.333333333
1331.94585916881,0.499097537862961,734345,232703.333333333
1336.48916761047,0.508234290975472,736319,228471.333333333
1339.89163237193,0.516470869682337,737558,224556.333333333
1343.28979721644,0.524344799403596,738142,220696.333333333
1346.683662144,0.531749982800529,738619,217105.333333333
1350.07322715461,0.541371362661194,738629,212351.333333333
1353.45849224827,0.550350849865096,737833,207781.666666667
1356.83945742498,0.558506109660049,736434,203529.666666667
1360.21612268474,0.567305959418902,736474,199458
1363.58848802755,0.575772339650545,735327,195302.666666667
1366.95655345341,0.583719516835357,735097,191701.333333333
1370.32031896232,0.591118151053788,734900,188412.666666667
1374.79865088116,0.600913549991633,735706,184412.666666667
1378.15238325052,0.609003189899745,734943,180821.666666667
1381.50181570292,0.618037823687581,732762,176573.333333333
1384.84694823838,0.629527172175474,731846,171748.333333333
1388.18778085688,0.642375819049906,730676,166475
1391.52431355844,0.659247005455126,728938,159751
1394.85654634304,0.677995272540544,727102,152616
1398.18447921069,0.700341349745916,724362,144415.666666667
1401.50811216139,0.724486319018117,722247,136207
1404.82744519514,0.749007616838241,719566,128251.666666667
1409.24653381378,0.783667321845956,716272,117872
1412.55583370798,0.808713697351602,714694,111021.333333333
1415.86083368523,0.834277357696419,713042,104433
1419.16153374553,0.858830061297705,711262,98446.3333333333
1422.45793388888,0.880214794513946,710137,93568
1425.75003411527,0.901615869887049,709598,89001.3333333333
1429.03783442472,0.917435843945449,708041,85629.3333333333
1432.32133481722,0.931861040664473,708142,82843.6666666667
1435.60053529276,0.943308209737748,706756,80530.6666666667
1438.87543585136,0.955863274860882,707115,78275.6666666667
1443.23528116978,0.964953304638388,706912,76632.3333333333
1446.50014858883,0.970623650609537,705956,75536
1449.76071609092,0.97444193784435,705433,74819.3333333333
1453.01698367606,0.98053930429011,705077,73739
1456.26895134425,0.982162786017164,703933,73344.6666666667
1459.5166190955,0.985151958871945,702932,72738
1462.75998692979,0.987787095355376,700832,72082
1465.99905484713,0.989282933359403,698515,71596.6666666667
1469.23382284752,0.990377513240692,696323,71192.3333333333
1472.46429093096,0.989746135950486,693306,70987
1476.76489294917,0.987285095775598,689657,71014.6666666667
1479.98532789306,0.987936851387438,686838,70618.3333333333
1483.20146292,0.986010023859033,684443,70685
1486.41329802998,0.988282775910021,680351,69895.6666666667
1489.62083322302,0.982659154843702,676729,70429.6666666667
1492.8240684991,0.982051090018654,673732,70216
1496.02300385824,0.978552175370693,669890,70380.3333333333
1499.21763930042,0.975455749495569,665764,70447.3333333333
1502.40797482566,0.973693793120577,662328,70368.6666666667
1505.59401043394,0.97167892923325,658060,70240.3333333333
1508.77574612527,0.967102403931717,653668,70510.6666666667
1513.01137162068,0.9664758357428,647807,69979.3333333333
1516.18307417246,0.961722540556785,642776,70200
1519.35047680729,0.956347289720405,636853,70419.3333333333
1522.51357952517,0.953271474943536,631257,70296.6666666667
1525.6723823261,0.95162280762589,626083,69985.6666666667
1528.82688521008,0.950677930049175,619667,69419.3333333333
1531.9770881771,0.945217418409941,614140,69670.6666666667
1535.12299122718,0.946035528056632,607382,68774.3333333333
1538.26459436031,0.942891665136587,601756,68632.3333333333
1541.40189757648,0.939644178742317,594204,68279.6666666667
1545.57827977168,0.940392712841244,584861,67090.3333333333
1548.70554984831,0.936922596708154,578079,66844.3333333333
1551.82852000798,0.935229466248322,571488,66340.3333333333
1554.94719025071,0.934193847385778,563266,65542
1558.06156057648,0.932679475188485,555713,64889
1561.1716309853,0.930177520276637,547023,64243.3333333333
1564.27740147717,0.93397928580658,540016,62867.6666666667
1567.37887205209,0.92828880529363,531678,62713.3333333333
1570.47604271006,0.929163949217405,523035,61569.6666666667
1573.56891345108,0.928550249100869,514017,60593.6666666667
1577.68605234607,0.924788026408405,502079,59701.3333333333
1580.76888994754,0.925459138522507,494135,58666
1583.84742763206,0.921592985617315,484769,58068.6666666667
1586.92166539963,0.918525034188421,475460,57357.3333333333
1589.99160325024,0.916327717417432,466116,56515.3333333333
1593.05724118391,0.915335603736212,456969,55533
1596.11857920063,0.910604659356891,447506,54978.6666666667
1599.17561730039,0.906060709894976,439245,54531.3333333333
1602.2283554832,0.901633357903055,429113,53819.3333333333
1605.27679374907,0.896978153231278,419968,53240
1609.33468934385,0.888292682285807,407521,52705.6666666667
1612.37309447016,0.889523635134539,398489,51391.6666666667
1615.40719967952,0.881678729903351,389802,51187.6666666667
1618.43700497194,0.880809255645776,380551,50073
1621.4625103474,0.875067105276541,371710,49560.6666666667
1624.48371580591,0.867489874358361,362463,49178.3333333333
1627.50062134746,0.866156553479977,353431,48100.3333333333
1630.51322697207,0.861782906620258,344400,47345.6666666667
1633.52153267973,0.858207741441112,335271,46471.6666666667
1636.52553847044,0.857857829605163,325918,45211.6666666667
1639.52524434419,0.851440152297022,316982,44626.6666666667
1643.51816341617,0.846711158051855,305331,43457
1646.50783615037,0.848303027287808,295134,41852
1649.49320896763,0.840783563314856,285124,41138.6666666667
1652.47428186793,0.838514977637734,274811,39858.3333333333
1655.45105485129,0.833661853101034,264180,38747
1658.42352791769,0.830904714097565,250984,37046
1661.39170106714,0.822578931157493,235469,35428.6666666667
1664.35557429964,0.814634889407757,216668,33201.6666666667
1667.31514761519,0.805872080729431,196183,30675.3333333333
1670.27042101379,0.794384208443053,174581,28029.3333333333
1674.20409678556,0.775912427941799,143952,24116
1677.14933704461,0.775794927739355,123337,20668
1680.09027738671,0.767819550344282,105172,17950.6666666667
1683.02691781185,0.783868965663543,88996,14638.6666666667
1685.95925832005,0.78408703046415,75582,12426
1688.8872989113,0.776109136143511,63863,10694
1691.81103958559,0.808201686203584,55494,8630.66666666667
1694.73048034294,0.826857356223643,47752,7114.33333333333
1697.64562118333,0.829382161092145,41556,6155.33333333333
1700.55646210678,0.834530371845924,35632,5215.66666666667
