***Scan Config Information***,,,,,,,***Reference Scan Information***,,,,,,,,
Scan Config Name:,Column 1,,,,,,Scan Config Name:,Local New Reference,,,,,,,
Scan Config Type:,Slew,Num Section:,1,,,,Scan Config Type:,Slew,Num Section:,1,,,,,
Section Config Type:,Column,,,,,,Section Config Type:,Column,,,,,,,
Start Wavelength (nm):,900,,,,,,Start Wavelength (nm):,900,,,,,,,
End Wavelength (nm):,1700,,,,,,End Wavelength (nm):,1700,,,,,,,
Pattern Width (nm):,7.03,,,,,,Pattern Width (nm):,7.03,,,,,,,
Exposure (ms):,0.635,,,,,,Exposure (ms):,0.635,,,,,,,
Digital Resolution:,228,,,,,,Digital Resolution:,228,,,,,,,
Num Repeats:,3,,,,,,Num Repeats:,3,,,,,,,
PGA Gain:,64,(FixedPGA),,,,,PGA Gain:,64,(AutoPGA),,,,,,
System Temp (C):,32.37,,,,,,System Temp (C):,29.46,,,,,,,
Humidity (%):,46.86,,,,,,Humidity (%):,52.02,,,,,,,
Lamp Indicator:,1122,,,,,,Lamp Indicator:,1099,,,,,,,
Data Date-Time:,2025/08/09T13:34:08,,,,,,Data Date-Time:,2025/08/09T13:22:04,,,,,,,
Total Measurement Time in sec:,2.4085588,,,,,,,,,,,,,,
,,,,,,,,,,,,,,,
***General Information***,,,,,,,***Calibration Coefficients***,,,,,,,,
Model Name:,NIR-R210,,,,,,Shift Vector Coefficients:,-5.72686255341989,0.0566949379947153,-0.000136804211203387,,,,,
Serial Number:,734R012,(N/A),,,,,Pixel to Wavelength Coefficients:,1812.09528251196,-0.912948081806683,-0.000238884275033469,,,,,
GUI Version:,3.9.8,Revision:,830,,,,Versions (Cal/Ref/Cfg):,1,3,1,,,,,
TIVA Version:,2.4.10,,,,,,***Lamp Usage ***,,,,,,,,
DLPC Version:,2.0.0,,,,,,Total Time(hh:mm:ss):,N/A,,,,,,,
UUID:,D6:65:30:51:9A:41:0D:28,,,,,,***Device/Error/Activation Status***,,,,,,,,
Main Board Version:,D,,,,,,Device Status:,0x00000001,Activation Status:,Not activated,,,,,
Detector Board Version:,B,,,,,,Error status:,0x00000000,Error Code:,0x00000000000000000000000000000000,,,,,
,,,,,,,,,Error Details:,Not found,,,,,
***Scan Data***,,,,,,,,,,,,,,,
Num Scan:,3

Wavelength (nm),Absorbance (AU),Reference Signal (unitless),Sample Signal (unitless)
900.894453969064,0.407778118519545,61165,23918
904.808608847648,0.401169137399555,71524,28397.6666666667
910.020793259393,0.405373171797149,81743,32142.3333333333
913.924914998427,0.410885053654051,88693,34435.3333333333
917.82473682051,0.408015858313825,96017,37526
921.720258725642,0.4111937866235,105300,40854
925.611480713823,0.409709222294031,115956,45142.3333333333
929.498402785054,0.411568954584057,129721,50285.3333333333
933.381024939334,0.410990175024969,145333,56412.3333333333
937.259347176664,0.410855103278827,161102,62552.6666666667
941.133369497043,0.411004449508901,176880,68655.3333333333
945.003091900472,0.408466490796226,190875,74521.6666666667
948.86851438695,0.40967235742275,204873,79765
954.015722275886,0.409260315291233,222646,86767
957.871111622812,0.412330227514547,236435,91491.6666666667
961.722201052788,0.4153175053625,250209,96158
965.568990565813,0.4186461641195,265026,101074.666666667
969.411480161888,0.417976221110733,277918,106155
973.249669841012,0.421261406272908,291257,110411.666666667
977.083559603186,0.425523082546617,304760,114402.333333333
980.913149448408,0.42779730531506,316097,118038.333333333
984.738439376681,0.429986235070747,326323,121244.333333333
988.559429388003,0.430157409085146,334592,124267.666666667
993.64739397673,0.432154460219613,344807,127474
997.458350848501,0.43351317418944,349688,128874.666666667
1001.26500780332,0.433247628784472,353644,130412.333333333
1005.06736484119,0.432501957965646,357116,131919
1008.86542196211,0.431981543371647,359485,132953.333333333
1012.65917916608,0.432024594787589,360943,133479.333333333
1016.44863645309,0.431415208164568,363031,134440
1020.23379382316,0.431634127842852,363948,134711.666666667
1024.01465127628,0.430346466003635,364282,135235.666666667
1027.79120881244,0.429951221903702,365769,135911.333333333
1032.81993010096,0.427432416973921,367653,137406
1036.58645449757,0.426289236523526,369308,138388.333333333
1040.34867897724,0.424777064615639,370049,139149.666666667
1044.10660353995,0.424964531536285,372221,139906
1047.86022818571,0.422230440989511,373567,141298.666666667
1051.60955291452,0.423057537409992,375404,141723.333333333
1055.35457772639,0.421717755462506,377310,142883
1059.0953026213,0.420351788353924,379148,144031.333333333
1062.83172759926,0.418925203056839,381319,145332.666666667
1066.56385266027,0.41815751643756,384184,146683.666666667
1071.53333064858,0.417066627377963,387908,148478
1075.25542257003,0.41508454671627,390607,150195
1078.97321457454,0.415099505859224,393646,151358.333333333
1082.6867066621,0.413804311229058,396671,152977
1086.3958988327,0.414382121604856,399870,154005.666666667
1090.10079108636,0.414513252096169,402904,155127.333333333
1093.80138342306,0.413238665391574,405606,156626.666666667
1097.49767584282,0.411312688235859,407871,158201.333333333
1101.18966834562,0.413327188486347,411381,158824.333333333
1104.87736093148,0.413089120784535,413721,159815.333333333
1108.56075360038,0.413143383240046,415453,160464.333333333
1113.46525506588,0.411984172593075,418471,162062
1117.13861459523,0.4136839933189,419674,161893
1120.80767420763,0.413201017472917,421639,162832
1124.47243390308,0.415669459358361,423459,162608
1128.13289368158,0.416259826588599,424228,162682
1131.78905354313,0.421401284027885,426045,161456
1135.44091348773,0.42464173052202,426478,160418.666666667
1139.08847351537,0.432312913191697,427601,158025
1142.73173362607,0.438316968876999,428210,156077.333333333
1146.37069381982,0.445589802148178,430333,154246.333333333
1151.21595198511,0.455236339377189,431572,151292.333333333
1154.84487903931,0.462981605292774,433166,149167
1158.46950617655,0.471133771393046,435811,147287
1162.08983339684,0.47855999710595,437511,145354.666666667
1165.70586070019,0.487126984274355,440470,143479.333333333
1169.31758808658,0.495256980748266,443261,141710.666666667
1172.92501555602,0.501287907656639,446330,140724
1176.52814310851,0.50908403389478,450024,139364.333333333
1180.12697074405,0.516568205276493,453937,138174.333333333
1183.72149846264,0.523345735948633,458109,137285
1188.50751332773,0.529557230637037,464689,137279.333333333
1192.09200790677,0.53355641306315,470015,137580
1195.67220256885,0.536035809463809,476072,138559.666666667
1199.24809731399,0.534880584369633,482088,140684.333333333
1202.81969214218,0.53606224265934,488677,142219.666666667
1206.38698705341,0.534518475041482,496329,144961
1209.9499820477,0.532236283735632,503908,147950
1213.50867712503,0.528959387411345,511433,151296.666666667
1217.06307228542,0.526260580807131,519363,154600.333333333
1220.61316752885,0.521051437538718,528308,159160.666666667
1224.15896285534,0.516609155080793,536018,163143.666666667
1228.88000119761,0.51122937022427,547278,168647
1232.41576338454,0.508893648101131,557050,172584
1235.94722565453,0.50510819259771,566065,176912.333333333
1239.47438800756,0.503398759682057,575725,180641
1242.99725044364,0.500657899319592,584235,184471.666666667
1246.51581296276,0.498815723754298,594054,188369.333333333
1250.03007556494,0.496657967316426,602549,192014.666666667
1253.54003825017,0.495559727994529,612257,195602.333333333
1257.04570101845,0.494370082864266,621056,198957.666666667
1260.54706386978,0.493378663886822,630966,202594.333333333
1265.20885891184,0.493456835262587,643606,206615.666666667
1268.70018862362,0.493076282337537,652183,209552.666666667
1272.18721841844,0.493229321856059,661425,212447.333333333
1275.66994829632,0.493041673560531,669244,215051.666666667
1279.14837825724,0.493371753665731,677027,217387.333333333
1282.62250830122,0.492012987461373,683423,220128.666666667
1286.09233842824,0.491373740318063,689796,222508.666666667
1289.55786863831,0.491144303085348,695579,224492.666666667
1293.01909893143,0.49010823668515,699163,226188.333333333
1296.4760293076,0.489484819512595,703715,227988
1301.07858104946,0.490977604710507,709736,229149.666666667
1304.52547828608,0.491601686488104,713970,230185.666666667
1307.96807560575,0.492658767616266,717163,230653
1311.40637300847,0.494749723590778,719966,230442.333333333
1314.84037049424,0.496542308315049,722284,230232
1318.27006806305,0.499676830581073,725225,229507
1321.69546571492,0.504119242337148,727780,227971.666666667
1325.11656344983,0.507549358603007,730006,226870
1328.5333612678,0.513048107941887,732700,224842.333333333
1331.94585916881,0.518559716950657,734345,222505.333333333
1336.48916761047,0.527908169977203,736319,218352.333333333
1339.89163237193,0.535337518802715,737558,215010
1343.28979721644,0.54389176774033,738142,210983.333333333
1346.683662144,0.551858884740325,738619,207282
1350.07322715461,0.560721420945796,738629,203097.666666667
1353.45849224827,0.570180061593944,737833,198508
1356.83945742498,0.578915915106929,736434,194186
1360.21612268474,0.588478493039653,736474,189967.333333333
1363.58848802755,0.59703606491416,735327,185970.666666667
1366.95655345341,0.60534203960363,735097,182390.666666667
1370.32031896232,0.612118633413315,734900,179518.666666667
1374.79865088116,0.62273001025974,735706,175377.666666667
1378.15238325052,0.63059813943043,734943,172050.333333333
1381.50181570292,0.638484189557369,732762,168453
1384.84694823838,0.650569159187865,731846,163625.333333333
1388.18778085688,0.663669089928373,730676,158509.666666667
1391.52431355844,0.680754629927577,728938,152032.333333333
1394.85654634304,0.699330721255659,727102,145299.666666667
1398.18447921069,0.719450758649672,724362,138199
1401.50811216139,0.743922463554974,722247,130245.666666667
1404.82744519514,0.768383017116364,719566,122655.666666667
1409.24653381378,0.802871556937583,716272,112773.333333333
1412.55583370798,0.829697414218365,714694,105784.666666667
1415.86083368523,0.85685305543786,713042,99143
1419.16153374553,0.88170908025734,711262,93394.3333333333
1422.45793388888,0.905020904764076,710137,88373.3333333333
1425.75003411527,0.927136557503287,709598,83922
1429.03783442472,0.944989656402712,708041,80365.3333333333
1432.32133481722,0.96058148795423,708142,77542.3333333333
1435.60053529276,0.975209235831851,706756,74827.3333333333
1438.87543585136,0.988200633604175,707115,72659
1443.23528116978,0.997306439677134,706912,71131
1446.50014858883,1.00547009110504,705956,69712
1449.76071609092,1.01106937819531,705433,68768
1453.01698367606,1.01559353562751,705077,68021
1456.26895134425,1.02080449012641,703933,67100.6666666667
1459.5166190955,1.02340865526892,702932,66604.6666666667
1462.75998692979,1.02692626006403,700832,65870
1465.99905484713,1.02860241540254,698515,65399.3333333333
1469.23382284752,1.02935652298682,696323,65081
1472.46429093096,1.02896140630127,693306,64858
1476.76489294917,1.03122892469476,689657,64180.6666666667
1479.98532789306,1.03372053668384,686838,63552.6666666667
1483.20146292,1.03067773928405,684443,63776.3333333333
1486.41329802998,1.03087901904509,680351,63365.6666666667
1489.62083322302,1.02943208316042,676729,63238.6666666667
1492.8240684991,1.02701486184572,673732,63310
1496.02300385824,1.02714576302043,669890,62930
1499.21763930042,1.02398435403613,665764,62999.3333333333
1502.40797482566,1.01984324933256,662328,63274.6666666667
1505.59401043394,1.01837839837685,658060,63079.3333333333
1508.77574612527,1.01656621008934,653668,62920.3333333333
1513.01137162068,1.01147363641334,647807,63091.6666666667
1516.18307417246,1.00967145839214,642776,62862
1519.35047680729,1.00532871844553,636853,62908.6666666667
1522.51357952517,1.00167755862913,631257,62882.3333333333
1525.6723823261,1.00094650174829,626083,62472
1528.82688521008,0.993388061316413,619667,62917.3333333333
1531.9770881771,0.994179193766535,614140,62242.6666666667
1535.12299122718,0.990622155032377,607382,62064
1538.26459436031,0.992042617873064,601756,61288.3333333333
1541.40189757648,0.987723803964049,594204,61124
1545.57827977168,0.986624930184006,584861,60315.3333333333
1548.70554984831,0.981648274659412,578079,60303
1551.82852000798,0.979290376981696,571488,59940
1554.94719025071,0.979145652513387,563266,59097.3333333333
1558.06156057648,0.979457713541374,555713,58263
1561.1716309853,0.976478666622506,547023,57746.6666666667
1564.27740147717,0.978872081693143,540016,56693.6666666667
1567.37887205209,0.976742603238047,531678,56092.6666666667
1570.47604271006,0.973768514513503,523035,55560
1573.56891345108,0.975038093269674,514017,54442.6666666667
1577.68605234607,0.973710903634057,502079,53341
1580.76888994754,0.973036047713215,494135,52578.6666666667
1583.84742763206,0.973078762192185,484769,51577
1586.92166539963,0.967120803431416,475460,51285.3333333333
1589.99160325024,0.965850974894681,466116,50424.6666666667
1593.05724118391,0.960485549868316,456969,50049.6666666667
1596.11857920063,0.956468657611193,447506,49468.6666666667
1599.17561730039,0.95592462549917,439245,48616.3333333333
1602.2283554832,0.950477762629545,429113,48094.3333333333
1605.27679374907,0.947786166567697,419968,47362
1609.33468934385,0.942451165497928,407521,46526.3333333333
1612.37309447016,0.937894599603104,398489,45975
1615.40719967952,0.935827350257953,389802,45187.3333333333
1618.43700497194,0.928766634864537,380551,44838
1621.4625103474,0.929136856194581,371710,43759
1624.48371580591,0.920904232254625,362463,43487
1627.50062134746,0.914193634333077,353431,43063.6666666667
1630.51322697207,0.914710941487111,344400,41913.3333333333
1633.52153267973,0.911903011588276,335271,41067
1636.52553847044,0.907472945647811,325918,40330.6666666667
1639.52524434419,0.901777597076025,316982,39742.6666666667
1643.51816341617,0.900081681163132,305331,38431.6666666667
1646.50783615037,0.89369709373295,295134,37698.3333333333
1649.49320896763,0.89253868360139,285124,36517
1652.47428186793,0.891472710751385,274811,35282.6666666667
1655.45105485129,0.889999702115576,264180,34033
1658.42352791769,0.88097420005093,250984,33012
1661.39170106714,0.876616089674686,235469,31283.6666666667
1664.35557429964,0.871037042873511,216668,29158
1667.31514761519,0.863781785560986,196183,26846
1670.27042101379,0.85869038021467,174581,24171.6666666667
1674.20409678556,0.847071573200932,143952,20471.3333333333
1677.14933704461,0.841846091389027,123337,17752
1680.09027738671,0.842798571360928,105172,15104.3333333333
1683.02691781185,0.847531799761917,88996,12642.6666666667
1685.95925832005,0.871054725428967,75582,10171
1688.8872989113,0.878050103405764,63863,8456.66666666667
1691.81103958559,0.885067688786059,55494,7230.66666666667
1694.73048034294,0.899755934207754,47752,6015
1697.64562118333,0.903605867298214,41556,5188.33333333333
1700.55646210678,0.905861499154051,35632,4425.66666666667
