***Scan Config Information***,,,,,,,***Reference Scan Information***,,,,,,,,
Scan Config Name:,Column 1,,,,,,Scan Config Name:,Local New Reference,,,,,,,
Scan Config Type:,Slew,Num Section:,1,,,,Scan Config Type:,Slew,Num Section:,1,,,,,
Section Config Type:,Column,,,,,,Section Config Type:,Column,,,,,,,
Start Wavelength (nm):,900,,,,,,Start Wavelength (nm):,900,,,,,,,
End Wavelength (nm):,1700,,,,,,End Wavelength (nm):,1700,,,,,,,
Pattern Width (nm):,7.03,,,,,,Pattern Width (nm):,7.03,,,,,,,
Exposure (ms):,0.635,,,,,,Exposure (ms):,0.635,,,,,,,
Digital Resolution:,228,,,,,,Digital Resolution:,228,,,,,,,
Num Repeats:,3,,,,,,Num Repeats:,3,,,,,,,
PGA Gain:,64,(FixedPGA),,,,,PGA Gain:,64,(AutoPGA),,,,,,
System Temp (C):,33.56,,,,,,System Temp (C):,29.46,,,,,,,
Humidity (%):,44.21,,,,,,Humidity (%):,52.02,,,,,,,
Lamp Indicator:,1137,,,,,,Lamp Indicator:,1099,,,,,,,
Data Date-Time:,2025/08/09T13:43:45,,,,,,Data Date-Time:,2025/08/09T13:22:04,,,,,,,
Total Measurement Time in sec:,2.4179996,,,,,,,,,,,,,,
,,,,,,,,,,,,,,,
***General Information***,,,,,,,***Calibration Coefficients***,,,,,,,,
Model Name:,NIR-R210,,,,,,Shift Vector Coefficients:,-5.72686255341989,0.0566949379947153,-0.000136804211203387,,,,,
Serial Number:,734R012,(N/A),,,,,Pixel to Wavelength Coefficients:,1812.09528251196,-0.912948081806683,-0.000238884275033469,,,,,
GUI Version:,3.9.8,Revision:,830,,,,Versions (Cal/Ref/Cfg):,1,3,1,,,,,
TIVA Version:,2.4.10,,,,,,***Lamp Usage ***,,,,,,,,
DLPC Version:,2.0.0,,,,,,Total Time(hh:mm:ss):,N/A,,,,,,,
UUID:,D6:65:30:51:9A:41:0D:28,,,,,,***Device/Error/Activation Status***,,,,,,,,
Main Board Version:,D,,,,,,Device Status:,0x00000001,Activation Status:,Not activated,,,,,
Detector Board Version:,B,,,,,,Error status:,0x00000000,Error Code:,0x00000000000000000000000000000000,,,,,
,,,,,,,,,Error Details:,Not found,,,,,
***Scan Data***,,,,,,,,,,,,,,,
Num Scan:,3

Wavelength (nm),Absorbance (AU),Reference Signal (unitless),Sample Signal (unitless)
900.894453969064,0.342395700232512,61165,27804
904.808608847648,0.344971484279537,71524,32320.6666666667
910.020793259393,0.34429971467445,81743,36995.6666666667
913.924914998427,0.355886636419945,88693,39084.3333333333
917.82473682051,0.351158114332325,96017,42775
921.720258725642,0.351533417665276,105300,46870
925.611480713823,0.352637815324873,115956,51482
929.498402785054,0.35680285449849,129721,57043.6666666667
933.381024939334,0.358520345082089,145333,63656.6666666667
937.259347176664,0.357859695341433,161102,70671
941.133369497043,0.356405236638467,176880,77852.6666666667
945.003091900472,0.353923179687664,190875,84494
948.86851438695,0.355044147025103,204873,90456.6666666667
954.015722275886,0.357099932697966,222646,97839.6666666667
957.871111622812,0.360142901434456,236435,103173.666666667
961.722201052788,0.361248461492947,250209,108906.666666667
965.568990565813,0.365204257120356,265026,114310
969.411480161888,0.36562906493246,277918,119753.333333333
973.249669841012,0.369061674805063,291257,124513
977.083559603186,0.373364887990883,304760,129001
980.913149448408,0.37578917477013,316097,133055
984.738439376681,0.378066653228527,326323,136641
988.559429388003,0.379018736744046,334592,139796.666666667
993.64739397673,0.381129905621459,344807,143366
997.458350848501,0.380602880407332,349688,145572
1001.26500780332,0.381198737771406,353644,147017
1005.06736484119,0.380528520632431,357116,148689.666666667
1008.86542196211,0.379988283357116,359485,149862.333333333
1012.65917916608,0.380251431178835,360943,150379
1016.44863645309,0.379317090126661,363031,151574.666666667
1020.23379382316,0.379109089433782,363948,152030.333333333
1024.01465127628,0.37735036127322,364282,152787.333333333
1027.79120881244,0.376390828957396,365769,153750.333333333
1032.81993010096,0.374975680289394,367653,155046.666666667
1036.58645449757,0.374360637754179,369308,155965.333333333
1040.34867897724,0.372532043658717,370049,156937.666666667
1044.10660353995,0.371394037241634,372221,158273
1047.86022818571,0.371245518571622,373567,158899.666666667
1051.60955291452,0.36957169509915,375404,160297.666666667
1055.35457772639,0.369091771269109,377310,161289.666666667
1059.0953026213,0.367031674011757,379148,162846
1062.83172759926,0.366161339103233,381319,164107
1066.56385266027,0.36531462606193,384184,165662.666666667
1071.53333064858,0.364415854948675,387908,167615
1075.25542257003,0.362609608385105,390607,169484.666666667
1078.97321457454,0.36241799610894,393646,170878.666666667
1082.6867066621,0.36130495617481,396671,172633.666666667
1086.3958988327,0.361057693248176,399870,174125
1090.10079108636,0.361826979175662,402904,175135.666666667
1093.80138342306,0.360653225802136,405606,176787.333333333
1097.49767584282,0.358831084040441,407871,178522
1101.18966834562,0.360390321359689,411381,179413
1104.87736093148,0.35993932334111,413721,180621
1108.56075360038,0.359867060076924,415453,181407.333333333
1113.46525506588,0.360776271049705,418471,182343
1117.13861459523,0.359016522097005,419674,183609.666666667
1120.80767420763,0.36061023266203,421639,183793.666666667
1124.47243390308,0.362459559616774,423459,183802.666666667
1128.13289368158,0.362973519717474,424228,183918.666666667
1131.78905354313,0.366838291318944,426045,183070
1135.44091348773,0.370963377418225,426478,181523.666666667
1139.08847351537,0.377027490832374,427601,179478
1142.73173362607,0.383408000544129,428210,177112.333333333
1146.37069381982,0.392390172301704,430333,174347
1151.21595198511,0.402135042055494,431572,170969.333333333
1154.84487903931,0.409386559637585,433166,168759.333333333
1158.46950617655,0.418894566112481,435811,166113
1162.08983339684,0.426173376291686,437511,163989.333333333
1165.70586070019,0.434291419692453,440470,162041
1169.31758808658,0.440874321164602,443261,160614.666666667
1172.92501555602,0.448306301588352,446330,158982.666666667
1176.52814310851,0.454576756113346,450024,158000.666666667
1180.12697074405,0.461867465305079,453937,156721.333333333
1183.72149846264,0.468729491915005,458109,155682.333333333
1188.50751332773,0.475208624938864,464689,155580
1192.09200790677,0.477859234430641,470015,156405.666666667
1195.67220256885,0.481247725405831,476072,157190
1199.24809731399,0.481758332996919,482088,158989.333333333
1202.81969214218,0.482376791896978,488677,160933
1206.38698705341,0.481593647053373,496329,163748
1209.9499820477,0.479516905768708,503908,167045.333333333
1213.50867712503,0.475506587753031,511433,171112.666666667
1217.06307228542,0.472277467137956,519363,175062.666666667
1220.61316752885,0.469477290034535,528308,179229.666666667
1224.15896285534,0.46469526765259,536018,183858.666666667
1228.88000119761,0.45874638105432,547278,190310
1232.41576338454,0.45573486464209,557050,195056
1235.94722565453,0.452499837000887,566065,199694.666666667
1239.47438800756,0.450028925979816,575725,204261.333333333
1242.99725044364,0.447382235760369,584235,208547.666666667
1246.51581296276,0.445927097566149,594054,212764.333333333
1250.03007556494,0.443509287639272,602549,217011.666666667
1253.54003825017,0.442699379891093,612257,220919.666666667
1257.04570101845,0.442120811840966,621056,224393.333333333
1260.54706386978,0.440637260750621,630966,228754
1265.20885891184,0.439571914095991,643606,233909.666666667
1268.70018862362,0.439726813229448,652183,236942.333333333
1272.18721841844,0.439701533710888,661425,240314
1275.66994829632,0.43976141742945,669244,243121.333333333
1279.14837825724,0.438880103320326,677027,246448.333333333
1282.62250830122,0.438426877086287,683423,249036.333333333
1286.09233842824,0.438125701029397,689796,251533
1289.55786863831,0.436803748677298,695579,254415
1293.01909893143,0.435328555185819,699163,256596
1296.4760293076,0.436271154757863,703715,257706.666666667
1301.07858104946,0.436726906767387,709736,259639
1304.52547828608,0.437233628866637,713970,260883.333333333
1307.96807560575,0.43891358734723,717163,261038.333333333
1311.40637300847,0.439824794038211,719966,261509.333333333
1314.84037049424,0.442499222892636,722284,260740.666666667
1318.27006806305,0.445415908596276,725225,260050
1321.69546571492,0.449294909977007,727780,258645.666666667
1325.11656344983,0.454006595688154,730006,256637.333333333
1328.5333612678,0.459936339356402,732700,254091.333333333
1331.94585916881,0.465735305546883,734345,251284
1336.48916761047,0.475114616970805,736319,246576.333333333
1339.89163237193,0.484078928183472,737558,241945.333333333
1343.28979721644,0.491429164549952,738142,238073.333333333
1346.683662144,0.500472230106472,738619,233318
1350.07322715461,0.508800800669928,738629,228889.333333333
1353.45849224827,0.518479154532169,737833,223603.666666667
1356.83945742498,0.527291667334777,736434,218696.666666667
1360.21612268474,0.536617164363256,736474,214062.333333333
1363.58848802755,0.545057464788361,735327,209615.333333333
1366.95655345341,0.552687600655943,735097,205900.333333333
1370.32031896232,0.560919162787571,734900,201980.333333333
1374.79865088116,0.570820663180471,735706,197644
1378.15238325052,0.57932736826843,734943,193609.333333333
1381.50181570292,0.588707225009291,732762,188910.333333333
1384.84694823838,0.600109640843828,731846,183785
1388.18778085688,0.614211786743482,730676,177628.666666667
1391.52431355844,0.630696290170609,728938,170606
1394.85654634304,0.650672492362142,727102,162526
1398.18447921069,0.671904145121361,724362,154188.333333333
1401.50811216139,0.697240876042331,722247,145025.666666667
1404.82744519514,0.722278552529781,719566,136393
1409.24653381378,0.759117497768798,716272,124727
1412.55583370798,0.785815509224598,714694,117032
1415.86083368523,0.810766714944922,713042,110242.333333333
1419.16153374553,0.83576252613909,711262,103816.666666667
1422.45793388888,0.85781773795261,710137,98520
1425.75003411527,0.879758187428075,709598,93595.3333333333
1429.03783442472,0.896549992546202,708041,89848
1432.32133481722,0.911132229609551,708142,86893.6666666667
1435.60053529276,0.924368519173901,706756,84120.3333333333
1438.87543585136,0.93321512032146,707115,82466
1443.23528116978,0.945637061489507,706912,80117.6666666667
1446.50014858883,0.951687787156405,705956,78902.3333333333
1449.76071609092,0.955310113260466,705433,78189
1453.01698367606,0.957947831220547,705077,77676.3333333333
1456.26895134425,0.96200802893991,703933,76828.6666666667
1459.5166190955,0.965036241900397,702932,76186.3333333333
1462.75998692979,0.966988736864242,700832,75618
1465.99905484713,0.969616614837075,698515,74913.3333333333
1469.23382284752,0.969319632544858,696323,74729.3333333333
1472.46429093096,0.970739621338936,693306,74162.6666666667
1476.76489294917,0.97035518448575,689657,73837.6666666667
1479.98532789306,0.970537433008949,686838,73505
1483.20146292,0.969233157570612,684443,73469
1486.41329802998,0.966508719815906,680351,73489.3333333333
1489.62083322302,0.964817352712616,676729,73383.3333333333
1492.8240684991,0.962520998090084,673732,73445.6666666667
1496.02300385824,0.960658641388505,669890,73340.6666666667
1499.21763930042,0.956808493493469,665764,73538
1502.40797482566,0.952189753331895,662328,73940.6666666667
1505.59401043394,0.950615368929802,658060,73731
1508.77574612527,0.947251826180343,653668,73808.3333333333
1513.01137162068,0.945627312928714,647807,73420.6666666667
1516.18307417246,0.94239712270331,642776,73394.3333333333
1519.35047680729,0.939207854847733,636853,73254
1522.51357952517,0.934379996618424,631257,73422
1525.6723823261,0.931998232798867,626083,73220.6666666667
1528.82688521008,0.929242230303665,619667,72931.6666666667
1531.9770881771,0.928406865215463,614140,72420.3333333333
1535.12299122718,0.923833338297844,607382,72381.6666666667
1538.26459436031,0.922800277095985,601756,71882
1541.40189757648,0.923914581704625,594204,70798
1545.57827977168,0.920400151821346,584861,70251
1548.70554984831,0.918003201693255,578079,69820.6666666667
1551.82852000798,0.917089339912641,571488,69170
1554.94719025071,0.915075802636975,563266,68491.6666666667
1558.06156057648,0.913458619700041,555713,67825.3333333333
1561.1716309853,0.9113693733265,547023,67086.6666666667
1564.27740147717,0.912595178892473,540016,66040.6666666667
1567.37887205209,0.909794338858185,531678,65441.6666666667
1570.47604271006,0.912167598247318,523035,64027
1573.56891345108,0.909139466618468,514017,63363.3333333333
1577.68605234607,0.905195572695916,502079,62456.3333333333
1580.76888994754,0.908527647545177,494135,60998.3333333333
1583.84742763206,0.903112384550408,484769,60593
1586.92166539963,0.905835250536989,475460,59058
1589.99160325024,0.900952276725921,466116,58552
1593.05724118391,0.89830467074434,456969,57754
1596.11857920063,0.892416920780993,447506,57330
1599.17561730039,0.889179941062099,439245,56692.6666666667
1602.2283554832,0.883345681400179,429113,56134
1605.27679374907,0.881408269665491,419968,55183.3333333333
1609.33468934385,0.873267671800931,407521,54561
1612.37309447016,0.870054029020906,398489,53748
1615.40719967952,0.864693036150608,389802,53229.3333333333
1618.43700497194,0.862994805658145,380551,52169.6666666667
1621.4625103474,0.858309884650698,371710,51510.3333333333
1624.48371580591,0.849663035358628,362463,51239
1627.50062134746,0.850383999263385,353431,49879.3333333333
1630.51322697207,0.845345269832125,344400,49172
1633.52153267973,0.839725893309989,335271,48492
1636.52553847044,0.837146796968421,325918,47420
1639.52524434419,0.833270437695619,316982,46533.3333333333
1643.51816341617,0.831970357160211,305331,44957.3333333333
1646.50783615037,0.824983622885418,295134,44160.6666666667
1649.49320896763,0.821450869399846,285124,43011.3333333333
1652.47428186793,0.817030896126792,274811,41879.6666666667
1655.45105485129,0.815407503014225,264180,40410.3333333333
1658.42352791769,0.808663099350618,250984,38992.6666666667
1661.39170106714,0.802649585474279,235469,37092.3333333333
1664.35557429964,0.792898837442921,216668,34905.6666666667
1667.31514761519,0.782192324702916,196183,32394.3333333333
1670.27042101379,0.771718823196025,174581,29531
1674.20409678556,0.754359679551872,143952,25343
1677.14933704461,0.753893775239398,123337,21737
1680.09027738671,0.749934680914337,105172,18705.3333333333
1683.02691781185,0.750127406743419,88996,15821.3333333333
1685.95925832005,0.745412021384913,75582,13583.3333333333
1688.8872989113,0.765821976400743,63863,10950.3333333333
1691.81103958559,0.76684254895638,55494,9493
1694.73048034294,0.788440147897847,47752,7772.33333333333
1697.64562118333,0.799880147099369,41556,6588
1700.55646210678,0.789436751252958,35632,5786.33333333333
