***Scan Config Information***,,,,,,,***Reference Scan Information***,,,,,,,,
Scan Config Name:,Column 1,,,,,,Scan Config Name:,Local New Reference,,,,,,,
Scan Config Type:,Slew,Num Section:,1,,,,Scan Config Type:,Slew,Num Section:,1,,,,,
Section Config Type:,Column,,,,,,Section Config Type:,Column,,,,,,,
Start Wavelength (nm):,900,,,,,,Start Wavelength (nm):,900,,,,,,,
End Wavelength (nm):,1700,,,,,,End Wavelength (nm):,1700,,,,,,,
Pattern Width (nm):,7.03,,,,,,Pattern Width (nm):,7.03,,,,,,,
Exposure (ms):,0.635,,,,,,Exposure (ms):,0.635,,,,,,,
Digital Resolution:,228,,,,,,Digital Resolution:,228,,,,,,,
Num Repeats:,3,,,,,,Num Repeats:,3,,,,,,,
PGA Gain:,64,(FixedPGA),,,,,PGA Gain:,64,(AutoPGA),,,,,,
System Temp (C):,31.13,,,,,,System Temp (C):,29.46,,,,,,,
Humidity (%):,49.46,,,,,,Humidity (%):,52.02,,,,,,,
Lamp Indicator:,1109,,,,,,Lamp Indicator:,1099,,,,,,,
Data Date-Time:,2025/08/09T13:27:23,,,,,,Data Date-Time:,2025/08/09T13:22:04,,,,,,,
Total Measurement Time in sec:,2.4181094,,,,,,,,,,,,,,
,,,,,,,,,,,,,,,
***General Information***,,,,,,,***Calibration Coefficients***,,,,,,,,
Model Name:,NIR-R210,,,,,,Shift Vector Coefficients:,-5.72686255341989,0.0566949379947153,-0.000136804211203387,,,,,
Serial Number:,734R012,(N/A),,,,,Pixel to Wavelength Coefficients:,1812.09528251196,-0.912948081806683,-0.000238884275033469,,,,,
GUI Version:,3.9.8,Revision:,830,,,,Versions (Cal/Ref/Cfg):,1,3,1,,,,,
TIVA Version:,2.4.10,,,,,,***Lamp Usage ***,,,,,,,,
DLPC Version:,2.0.0,,,,,,Total Time(hh:mm:ss):,N/A,,,,,,,
UUID:,D6:65:30:51:9A:41:0D:28,,,,,,***Device/Error/Activation Status***,,,,,,,,
Main Board Version:,D,,,,,,Device Status:,0x00000101,Activation Status:,Not activated,,,,,
Detector Board Version:,B,,,,,,Error status:,0x00000000,Error Code:,0x00000000000000000000000000000000,,,,,
,,,,,,,,,Error Details:,Not found,,,,,
***Scan Data***,,,,,,,,,,,,,,,
Num Scan:,3

Wavelength (nm),Absorbance (AU),Reference Signal (unitless),Sample Signal (unitless)
900.894453969064,0.369673931130179,61165,26111.3333333333
904.808608847648,0.367568128911084,71524,30682
910.020793259393,0.369679072695008,81743,34895.6666666667
913.924914998427,0.372228192245054,88693,37641
917.82473682051,0.371790878215478,96017,40790.3333333333
921.720258725642,0.379258736347455,105300,43971.3333333333
925.611480713823,0.375384207966424,115956,48855
929.498402785054,0.374594436295389,129721,54754
933.381024939334,0.375596258561118,145333,61202.3333333333
937.259347176664,0.375708995183614,161102,67825.3333333333
941.133369497043,0.375644892658024,176880,74479
945.003091900472,0.377414841107453,190875,80045
948.86851438695,0.376681703071762,204873,86060.3333333333
954.015722275886,0.377709979904996,222646,93305
957.871111622812,0.381569322009492,236435,98207
961.722201052788,0.382695912302063,250209,103659
965.568990565813,0.388094968052473,265026,108441
969.411480161888,0.38886214699774,277918,113515.333333333
973.249669841012,0.392757655375767,291257,117901.333333333
977.083559603186,0.396274723879253,304760,122372.333333333
980.913149448408,0.399818791274139,316097,125893
984.738439376681,0.400926529640344,326323,129634.666666667
988.559429388003,0.403044349277076,334592,132273
993.64739397673,0.405430631273969,344807,135564.333333333
997.458350848501,0.4060734586785,349688,137280
1001.26500780332,0.404006615150749,353644,139495.333333333
1005.06736484119,0.404281715792779,357116,140775.666666667
1008.86542196211,0.404715676953152,359485,141568
1012.65917916608,0.402707374971121,360943,142801
1016.44863645309,0.402493995755537,363031,143697.666666667
1020.23379382316,0.401979718820661,363948,144231.333333333
1024.01465127628,0.400660152714752,364282,144803
1027.79120881244,0.400222535035172,365769,145540.666666667
1032.81993010096,0.39892807611966,367653,146727
1036.58645449757,0.397703507466118,369308,147803.666666667
1040.34867897724,0.395986235981681,370049,148687
1044.10660353995,0.396252648197381,372221,149468
1047.86022818571,0.393456754442436,373567,150977.333333333
1051.60955291452,0.393523812259214,375404,151696.333333333
1055.35457772639,0.392666870259007,377310,152767.666666667
1059.0953026213,0.39106437874191,379148,154079.333333333
1062.83172759926,0.390668247412191,381319,155103
1066.56385266027,0.390360842354648,384184,156379
1071.53333064858,0.389900347588716,387908,158062.333333333
1075.25542257003,0.388102555058737,390607,159822.333333333
1078.97321457454,0.388038159899299,393646,161089.666666667
1082.6867066621,0.386019983757031,396671,163083.666666667
1086.3958988327,0.386159684381615,399870,164346
1090.10079108636,0.386708962752133,402904,165383.666666667
1093.80138342306,0.385832824179325,405606,166829
1097.49767584282,0.385084310875643,407871,168050
1101.18966834562,0.385985921025973,411381,169144.666666667
1104.87736093148,0.385897733857221,413721,170141.333333333
1108.56075360038,0.385862010534378,415453,170867.666666667
1113.46525506588,0.385275078239475,418471,172341.666666667
1117.13861459523,0.38629503829951,419674,172431.666666667
1120.80767420763,0.386249984465087,421639,173257
1124.47243390308,0.387987745331892,423459,173310
1128.13289368158,0.388820815501905,424228,173292
1131.78905354313,0.392948441735223,426045,172388
1135.44091348773,0.396749857737903,426478,171059.333333333
1139.08847351537,0.403014117416057,427601,169053.666666667
1142.73173362607,0.409519779712571,428210,166777.333333333
1146.37069381982,0.417461019303027,430333,164567.333333333
1151.21595198511,0.428393760803234,431572,160938.333333333
1154.84487903931,0.436648841721639,433166,158491.333333333
1158.46950617655,0.445275306756388,435811,156323
1162.08983339684,0.452765680939544,437511,154249.333333333
1165.70586070019,0.460451932368612,440470,152568.333333333
1169.31758808658,0.468308102134197,443261,150782.666666667
1172.92501555602,0.475572031213641,446330,149308.333333333
1176.52814310851,0.48170033399539,450024,148434.666666667
1180.12697074405,0.4896162107556,453937,147021
1183.72149846264,0.494623583992884,458109,146671.333333333
1188.50751332773,0.501389990583129,464689,146478
1192.09200790677,0.505352135252387,470015,146811.333333333
1195.67220256885,0.50899055607747,476072,147462.666666667
1199.24809731399,0.51034344420298,482088,148861.666666667
1202.81969214218,0.509610874296312,488677,151151
1206.38698705341,0.509648068405484,496329,153504.666666667
1209.9499820477,0.508059897169261,503908,156419.666666667
1213.50867712503,0.506032597976748,511433,159498.333333333
1217.06307228542,0.501406409710602,519363,163706
1220.61316752885,0.497935656293856,528308,167861.666666667
1224.15896285534,0.494500146016989,536018,171664
1228.88000119761,0.48776928283835,547278,178007.666666667
1232.41576338454,0.484789191622135,557050,182433.666666667
1235.94722565453,0.481037857234398,566065,186994.333333333
1239.47438800756,0.479725498045476,575725,190761
1242.99725044364,0.476501738051068,584235,195023
1246.51581296276,0.474953934507841,594054,199008.666666667
1250.03007556494,0.47307220742288,602549,202731
1253.54003825017,0.470805390036467,612257,207075.333333333
1257.04570101845,0.470903194911421,621056,210004
1260.54706386978,0.469607743409256,630966,213992.333333333
1265.20885891184,0.46941981783585,643606,218373.666666667
1268.70018862362,0.469602022102019,652183,221191
1272.18721841844,0.469474526842882,661425,224391.333333333
1275.66994829632,0.468052373763793,669244,227788.666666667
1279.14837825724,0.467975884045523,677027,230478.333333333
1282.62250830122,0.467128686134668,683423,233110
1286.09233842824,0.46661052229758,689796,235564.666666667
1289.55786863831,0.465690438800903,695579,238043.333333333
1293.01909893143,0.464215219001892,699163,240084
1296.4760293076,0.464657143798107,703715,241401.333333333
1301.07858104946,0.465315448685027,709736,243098
1304.52547828608,0.466773945024708,713970,243728.333333333
1307.96807560575,0.467440270180876,717163,244443
1311.40637300847,0.469485120259723,719966,244245.666666667
1314.84037049424,0.471835832822998,722284,243709.333333333
1318.27006806305,0.474998767537059,725225,242926
1321.69546571492,0.479181900463392,727780,241445
1325.11656344983,0.483482080432339,730006,239797.333333333
1328.5333612678,0.489310123997675,732700,237474
1331.94585916881,0.495662853311356,734345,234551
1336.48916761047,0.505037416239609,736319,230159.333333333
1339.89163237193,0.512900573280857,737558,226410
1343.28979721644,0.521571805107,738142,222110
1346.683662144,0.530138664108013,738619,217912.333333333
1350.07322715461,0.538407143401603,738629,213805.666666667
1353.45849224827,0.546730517173513,737833,209521
1356.83945742498,0.555531823003711,736434,204928.333333333
1360.21612268474,0.565465629140156,736474,200305
1363.58848802755,0.573989631430781,735327,196106
1366.95655345341,0.58130745591121,735097,192769
1370.32031896232,0.588745864054412,734900,189444.666666667
1374.79865088116,0.599666399782228,735706,184943
1378.15238325052,0.607344327960415,734943,181513.666666667
1381.50181570292,0.616900533172156,732762,177036.333333333
1384.84694823838,0.629031835871058,731846,171944.333333333
1388.18778085688,0.641612122192131,730676,166768
1391.52431355844,0.657967538746289,728938,160222.333333333
1394.85654634304,0.678053138313336,727102,152595.666666667
1398.18447921069,0.700524830946941,724362,144354.666666667
1401.50811216139,0.724024234069047,722247,136352
1404.82744519514,0.749407380364624,719566,128133.666666667
1409.24653381378,0.784707583989762,716272,117590
1412.55583370798,0.81296835380148,714694,109939
1415.86083368523,0.838929313032811,713042,103320.333333333
1419.16153374553,0.864551040367879,711262,97158
1422.45793388888,0.885270840223687,710137,92485
1425.75003411527,0.909993164354188,709598,87301
1429.03783442472,0.92613773402756,708041,83930.6666666667
1432.32133481722,0.943026229249455,708142,80741
1435.60053529276,0.955668621661628,706756,78271
1438.87543585136,0.964951450561946,707115,76654.6666666667
1443.23528116978,0.97659935969149,706912,74604.6666666667
1446.50014858883,0.981797551903559,705956,73617.3333333333
1449.76071609092,0.988843193476013,705433,72379
1453.01698367606,0.992337979470043,705077,71762.6666666667
1456.26895134425,0.995411359579008,703933,71141
1459.5166190955,0.996828942212459,702932,70808.3333333333
1462.75998692979,1.00161749213963,700832,69822.6666666667
1465.99905484713,1.00349890757704,698515,69291
1469.23382284752,1.00325309018227,696323,69112.6666666667
1472.46429093096,1.00304624616331,693306,68846
1476.76489294917,1.00380991827892,689657,68363.3333333333
1479.98532789306,1.00155489022972,686838,68438.3333333333
1483.20146292,1.00203502090625,684443,68124.3333333333
1486.41329802998,0.998872244076832,680351,68212
1489.62083322302,0.997046652215104,676729,68134.6666666667
1492.8240684991,0.995055303866701,673732,68144.6666666667
1496.02300385824,0.991339111949342,669890,68338.3333333333
1499.21763930042,0.989769487546133,665764,68163.3333333333
1502.40797482566,0.985752538509463,662328,68441.6666666667
1505.59401043394,0.981935046645112,658060,68601
1508.77574612527,0.979457481539324,653668,68533
1513.01137162068,0.974248744791819,647807,68738
1516.18307417246,0.975885105101378,642776,67947.6666666667
1519.35047680729,0.971098335553405,636853,68067.6666666667
1522.51357952517,0.964276892049157,631257,68537.6666666667
1525.6723823261,0.963011011835851,626083,68174.3333333333
1528.82688521008,0.962102470390348,619667,67617
1531.9770881771,0.95915667449855,614140,67470
1535.12299122718,0.955662010107129,607382,67266.6666666667
1538.26459436031,0.95490193280182,601756,66760.3333333333
1541.40189757648,0.95180019577647,594204,66395
1545.57827977168,0.948980801316123,584861,65776.6666666667
1548.70554984831,0.949800495179254,578079,64891.3333333333
1551.82852000798,0.945635453603042,571488,64769.6666666667
1554.94719025071,0.943636495850967,563266,64132.3333333333
1558.06156057648,0.945158577564919,555713,63051
1561.1716309853,0.942633122039786,547023,62427
1564.27740147717,0.944278339792352,540016,61394.3333333333
1567.37887205209,0.942610275334421,531678,60679
1570.47604271006,0.939348071197637,523035,60142.6666666667
1573.56891345108,0.940370904392963,514017,58966.6666666667
1577.68605234607,0.938038491037159,502079,57907.3333333333
1580.76888994754,0.931887724062328,494135,57804
1583.84742763206,0.93063633856965,484769,56872
1586.92166539963,0.93195328137244,475460,55611
1589.99160325024,0.925541189901124,466116,55329
1593.05724118391,0.924495456405585,456969,54374
1596.11857920063,0.921755627507132,447506,53585
1599.17561730039,0.913885178593911,439245,53557.6666666667
1602.2283554832,0.91508424327315,429113,52178
1605.27679374907,0.904767105779867,419968,52293.6666666667
1609.33468934385,0.898264064318668,407521,51509.3333333333
1612.37309447016,0.898063360578911,398489,50391
1615.40719967952,0.890463447371635,389802,50162.6666666667
1618.43700497194,0.888639061206606,380551,49178.3333333333
1621.4625103474,0.878501092494045,371710,49170.3333333333
1624.48371580591,0.876012457887246,362463,48222.6666666667
1627.50062134746,0.875585046074679,353431,47067.3333333333
1630.51322697207,0.871557198330622,344400,46292
1633.52153267973,0.8647265258777,335271,45779.3333333333
1636.52553847044,0.861284576208546,325918,44856.3333333333
1639.52524434419,0.857627988755701,316982,43995.3333333333
1643.51816341617,0.858420265828499,305331,42301
1646.50783615037,0.853064362747871,295134,41395.6666666667
1649.49320896763,0.847339330410323,285124,40522.3333333333
1652.47428186793,0.842491994300324,274811,39495
1655.45105485129,0.844166928289717,264180,37821
1658.42352791769,0.835674767759526,250984,36641.3333333333
1661.39170106714,0.839421410135779,235469,34081
1664.35557429964,0.829479195331891,216668,32086
1667.31514761519,0.827685241718877,196183,29172.6666666667
1670.27042101379,0.821216357254212,174581,26350
1674.20409678556,0.812295323996773,143952,22178
1677.14933704461,0.816920131108809,123337,18800.6666666667
1680.09027738671,0.810325769262017,105172,16277
1683.02691781185,0.800963226759665,88996,14073.6666666667
1685.95925832005,0.821526227259491,75582,11399.6666666667
1688.8872989113,0.826126035465926,63863,9530.66666666667
1691.81103958559,0.838126572284253,55494,8056
1694.73048034294,0.855147973997886,47752,6665.66666666667
1697.64562118333,0.835588165482393,41556,6068
1700.55646210678,0.855775185997351,35632,4966.66666666667
