***Scan Config Information***,,,,,,,***Reference Scan Information***,,,,,,,,
Scan Config Name:,Column 1,,,,,,Scan Config Name:,Local New Reference,,,,,,,
Scan Config Type:,Slew,Num Section:,1,,,,Scan Config Type:,Slew,Num Section:,1,,,,,
Section Config Type:,Column,,,,,,Section Config Type:,Column,,,,,,,
Start Wavelength (nm):,900,,,,,,Start Wavelength (nm):,900,,,,,,,
End Wavelength (nm):,1700,,,,,,End Wavelength (nm):,1700,,,,,,,
Pattern Width (nm):,7.03,,,,,,Pattern Width (nm):,7.03,,,,,,,
Exposure (ms):,0.635,,,,,,Exposure (ms):,0.635,,,,,,,
Digital Resolution:,228,,,,,,Digital Resolution:,228,,,,,,,
Num Repeats:,3,,,,,,Num Repeats:,3,,,,,,,
PGA Gain:,64,(FixedPGA),,,,,PGA Gain:,64,(AutoPGA),,,,,,
System Temp (C):,34.54,,,,,,System Temp (C):,29.46,,,,,,,
Humidity (%):,39.97,,,,,,Humidity (%):,52.02,,,,,,,
Lamp Indicator:,1146,,,,,,Lamp Indicator:,1099,,,,,,,
Data Date-Time:,2025/08/09T14:05:48,,,,,,Data Date-Time:,2025/08/09T13:22:04,,,,,,,
Total Measurement Time in sec:,2.4082184,,,,,,,,,,,,,,
,,,,,,,,,,,,,,,
***General Information***,,,,,,,***Calibration Coefficients***,,,,,,,,
Model Name:,NIR-R210,,,,,,Shift Vector Coefficients:,-5.72686255341989,0.0566949379947153,-0.000136804211203387,,,,,
Serial Number:,734R012,(N/A),,,,,Pixel to Wavelength Coefficients:,1812.09528251196,-0.912948081806683,-0.000238884275033469,,,,,
GUI Version:,3.9.8,Revision:,830,,,,Versions (Cal/Ref/Cfg):,1,3,1,,,,,
TIVA Version:,2.4.10,,,,,,***Lamp Usage ***,,,,,,,,
DLPC Version:,2.0.0,,,,,,Total Time(hh:mm:ss):,N/A,,,,,,,
UUID:,D6:65:30:51:9A:41:0D:28,,,,,,***Device/Error/Activation Status***,,,,,,,,
Main Board Version:,D,,,,,,Device Status:,0x00000001,Activation Status:,Not activated,,,,,
Detector Board Version:,B,,,,,,Error status:,0x00000000,Error Code:,0x00000000000000000000000000000000,,,,,
,,,,,,,,,Error Details:,Not found,,,,,
***Scan Data***,,,,,,,,,,,,,,,
Num Scan:,3

Wavelength (nm),Absorbance (AU),Reference Signal (unitless),Sample Signal (unitless)
900.894453969064,0.361458105518724,61165,26610
904.808608847648,0.354192443417034,71524,31641.6666666667
910.020793259393,0.356820139368517,81743,35944.3333333333
913.924914998427,0.360208306515436,88693,38697.3333333333
917.82473682051,0.363251322008929,96017,41600.3333333333
921.720258725642,0.362762493163347,105300,45673.6666666667
925.611480713823,0.36299009988893,115956,50269.3333333333
929.498402785054,0.367006974473528,129721,55719
933.381024939334,0.367938935503249,145333,62291
937.259347176664,0.368633852681701,161102,68939.3333333333
941.133369497043,0.365790256352726,176880,76188.3333333333
945.003091900472,0.363718180294281,190875,82609.6666666667
948.86851438695,0.362701855510164,204873,88875.6666666667
954.015722275886,0.36192502195785,222646,96758.6666666667
957.871111622812,0.363735672288654,236435,102323.666666667
961.722201052788,0.365077598446298,250209,107950.666666667
965.568990565813,0.367352348704523,265026,113746
969.411480161888,0.366210915436519,277918,119593
973.249669841012,0.368391344329623,291257,124705.333333333
977.083559603186,0.372161315270413,304760,129359
980.913149448408,0.371865105372893,316097,134262.666666667
984.738439376681,0.372819224412871,326323,138302
988.559429388003,0.37369261837884,334592,141521.666666667
993.64739397673,0.37411254786863,344807,145701.333333333
997.458350848501,0.373750730145032,349688,147887
1001.26500780332,0.373531171272078,353644,149635.666666667
1005.06736484119,0.373672286549004,357116,151055.666666667
1008.86542196211,0.37203897241444,359485,152630.666666667
1012.65917916608,0.371769003828289,360943,153345
1016.44863645309,0.372288587442548,363031,154047.666666667
1020.23379382316,0.371572418524237,363948,154691.666666667
1024.01465127628,0.369397418675967,364282,155611
1027.79120881244,0.369561084926224,365769,156187.333333333
1032.81993010096,0.368202596264037,367653,157483.666666667
1036.58645449757,0.368116355951485,369308,158224
1040.34867897724,0.365707349515256,370049,159423.333333333
1044.10660353995,0.365282542816567,372221,160516
1047.86022818571,0.365133703291971,373567,161151.666666667
1051.60955291452,0.364548018346171,375404,162162.666666667
1055.35457772639,0.36328416417635,377310,163461
1059.0953026213,0.362207470943158,379148,164665
1062.83172759926,0.36144118679825,381319,165900.333333333
1066.56385266027,0.361741326067435,384184,167031.333333333
1071.53333064858,0.360359179757925,387908,169188
1075.25542257003,0.359455619856932,390607,170720
1078.97321457454,0.35853835300344,393646,172412
1082.6867066621,0.358477310620838,396671,173761.333333333
1086.3958988327,0.358350018337675,399870,175214
1090.10079108636,0.357594877756218,402904,176850.666666667
1093.80138342306,0.357726661351116,405606,177982.666666667
1097.49767584282,0.356754457240647,407871,179377.666666667
1101.18966834562,0.357534499409864,411381,180596.666666667
1104.87736093148,0.357490493634894,413721,181642.333333333
1108.56075360038,0.357314560363721,415453,182476.666666667
1113.46525506588,0.357817133491947,418471,183589.666666667
1117.13861459523,0.356071464885762,419674,184859
1120.80767420763,0.357681413676178,421639,185037.333333333
1124.47243390308,0.358463551642523,423459,185501.666666667
1128.13289368158,0.360453424816803,424228,184989
1131.78905354313,0.364280605179956,426045,184151.333333333
1135.44091348773,0.366161961829255,426478,183541.666666667
1139.08847351537,0.371206013128014,427601,181900
1142.73173362607,0.375066528656917,428210,180547
1146.37069381982,0.381356179562708,430333,178833.333333333
1151.21595198511,0.387907659164185,431572,176663
1154.84487903931,0.393173144230926,433166,175178.666666667
1158.46950617655,0.400282490338818,435811,173386.666666667
1162.08983339684,0.405551438076676,437511,171964
1165.70586070019,0.410228274743653,440470,171272.666666667
1169.31758808658,0.415986698537804,443261,170087.666666667
1172.92501555602,0.42157753897627,446330,169074.666666667
1176.52814310851,0.426148911820948,450024,168689
1180.12697074405,0.431622540636694,453937,168024.666666667
1183.72149846264,0.435964689623705,458109,167882
1188.50751332773,0.440130555110886,464689,168667.666666667
1192.09200790677,0.444405793068469,470015,168929.666666667
1195.67220256885,0.446637390616545,476072,170229.666666667
1199.24809731399,0.446974654676373,482088,172247
1202.81969214218,0.446011149750785,488677,174989
1206.38698705341,0.446249260644143,496329,177631.666666667
1209.9499820477,0.44516563832856,503908,180794.666666667
1213.50867712503,0.442910087701055,511433,184450
1217.06307228542,0.440753709329495,519363,188242.333333333
1220.61316752885,0.438583564113215,528308,192443.666666667
1224.15896285534,0.434910866602525,536018,196910.333333333
1228.88000119761,0.431171449328908,547278,202785.333333333
1232.41576338454,0.428783995920447,557050,207544
1235.94722565453,0.427180321365689,566065,211683
1239.47438800756,0.424962514826789,575725,216397.666666667
1242.99725044364,0.422724895892134,584235,220730.666666667
1246.51581296276,0.421824882886485,594054,224906
1250.03007556494,0.419363618620527,602549,229418.666666667
1253.54003825017,0.418632615002041,612257,233507.666666667
1257.04570101845,0.41845572066527,621056,236960
1260.54706386978,0.417425838722116,630966,241312.666666667
1265.20885891184,0.416708031388981,643606,246554
1268.70018862362,0.41666346848506,652183,249865.333333333
1272.18721841844,0.416565463953656,661425,253463.333333333
1275.66994829632,0.416258447445723,669244,256641
1279.14837825724,0.415470645795754,677027,260097
1282.62250830122,0.41495297105977,683423,262867.333333333
1286.09233842824,0.414391778718211,689796,265661.666666667
1289.55786863831,0.414476430504675,695579,267836.666666667
1293.01909893143,0.41315462658508,699163,270037.333333333
1296.4760293076,0.412913600731799,703715,271946.333333333
1301.07858104946,0.413669206756693,709736,273796.333333333
1304.52547828608,0.414742789526845,713970,274749.666666667
1307.96807560575,0.415390667027763,717163,275567
1311.40637300847,0.416354128817819,719966,276031
1314.84037049424,0.417513672550493,722284,276181.333333333
1318.27006806305,0.420750698489455,725225,275246.666666667
1321.69546571492,0.422591625297305,727780,275048
1325.11656344983,0.426103469286351,730006,273667.333333333
1328.5333612678,0.42944282629375,732700,272573.333333333
1331.94585916881,0.433728056207302,734345,270503
1336.48916761047,0.440034013177923,736319,267320.333333333
1339.89163237193,0.445687512699345,737558,264307
1343.28979721644,0.451233811604298,738142,261159.666666667
1346.683662144,0.456795719241929,738619,258003
1350.07322715461,0.463753961323067,738629,253905.666666667
1353.45849224827,0.469952058975723,737833,250038
1356.83945742498,0.475585965513508,736434,246347.333333333
1360.21612268474,0.482428364723141,736474,242509.666666667
1363.58848802755,0.487755046039879,735327,239180.333333333
1366.95655345341,0.49329771808625,735097,236073.333333333
1370.32031896232,0.498619527477299,734900,233135.666666667
1374.79865088116,0.505152733107838,735706,229906.666666667
1378.15238325052,0.510618905463904,734943,226795.666666667
1381.50181570292,0.516540592487768,732762,223060.333333333
1384.84694823838,0.524455759307607,731846,218758
1388.18778085688,0.533050705931032,730676,214128.333333333
1391.52431355844,0.544031901218429,728938,208285.333333333
1394.85654634304,0.556605315483235,727102,201832
1398.18447921069,0.570726538284082,724362,194638.666666667
1401.50811216139,0.586243819825866,722247,187258.666666667
1404.82744519514,0.601318257871249,719566,180199
1409.24653381378,0.624770434584973,716272,169944.666666667
1412.55583370798,0.642102197265158,714694,162936.333333333
1415.86083368523,0.65906815369696,713042,156331.666666667
1419.16153374553,0.673849116401956,711262,150723.333333333
1422.45793388888,0.689557017208929,710137,145139.333333333
1425.75003411527,0.701621844898474,709598,141055.666666667
1429.03783442472,0.7130938156775,708041,137077
1432.32133481722,0.723964043220172,708142,133707.666666667
1435.60053529276,0.733120202610497,706756,130662
1438.87543585136,0.739270826322413,707115,128890
1443.23528116978,0.746660727569838,706912,126679
1446.50014858883,0.750340434301546,705956,125440.333333333
1449.76071609092,0.754786656185814,705433,124070.666666667
1453.01698367606,0.756937812482697,705077,123395.333333333
1456.26895134425,0.758923972530913,703933,122633
1459.5166190955,0.761544234831113,702932,121722
1462.75998692979,0.762803429441644,700832,121007
1465.99905484713,0.762764813800315,698515,120617.666666667
1469.23382284752,0.764037440194528,696323,119887.333333333
1472.46429093096,0.76526366029196,693306,119031.333333333
1476.76489294917,0.765753655781099,689657,118271.333333333
1479.98532789306,0.764462249903482,686838,118138.666666667
1483.20146292,0.765500288728078,684443,117445.666666667
1486.41329802998,0.763037803406844,680351,117407.333333333
1489.62083322302,0.763069870617931,676729,116773.666666667
1492.8240684991,0.761878025805366,673732,116576
1496.02300385824,0.760710167740934,669890,116223.333333333
1499.21763930042,0.757490469623522,665764,116367
1502.40797482566,0.756635094083659,662328,115994.666666667
1505.59401043394,0.754177060996551,658060,115901.333333333
1508.77574612527,0.752785267699132,653668,115497.333333333
1513.01137162068,0.749620095919319,647807,115299
1516.18307417246,0.74820478356048,642776,114777
1519.35047680729,0.743937191182141,636853,114842.333333333
1522.51357952517,0.743381364686915,631257,113979
1525.6723823261,0.740717414885136,626083,113740.333333333
1528.82688521008,0.738341356161562,619667,113192.333333333
1531.9770881771,0.737681422924971,614140,112353.333333333
1535.12299122718,0.736196138374084,607382,111497.666666667
1538.26459436031,0.735314657482291,601756,110689.333333333
1541.40189757648,0.732571839787785,594204,109992.666666667
1545.57827977168,0.730665996411276,584861,108739.333333333
1548.70554984831,0.729434239281769,578079,107783.666666667
1551.82852000798,0.730279149936569,571488,106347.666666667
1554.94719025071,0.727934737173788,563266,105385
1558.06156057648,0.726966166299134,555713,104204
1561.1716309853,0.72376094501655,547023,103334.333333333
1564.27740147717,0.725565642343689,540016,101587.666666667
1567.37887205209,0.724840207880652,531678,100186.333333333
1570.47604271006,0.723895438199039,523035,98772.3333333333
1573.56891345108,0.723427402502426,514017,97174
1577.68605234607,0.720053787161378,502079,95657.3333333333
1580.76888994754,0.720742404345413,494135,93994.6666666667
1583.84742763206,0.718567558903835,484769,92676
1586.92166539963,0.716045850173505,475460,91425.6666666667
1589.99160325024,0.714734319142819,466116,89900
1593.05724118391,0.713030172546716,456969,88482.3333333333
1596.11857920063,0.709890759527769,447506,87278.6666666667
1599.17561730039,0.707520445852292,439245,86136.3333333333
1602.2283554832,0.702820765363547,429113,85065
1605.27679374907,0.700568579567866,419968,83685
1609.33468934385,0.697649836398804,407521,81752.3333333333
1612.37309447016,0.693367039687409,398489,80732.6666666667
1615.40719967952,0.68970008771961,389802,79642.3333333333
1618.43700497194,0.688489046646409,380551,77969.3333333333
1621.4625103474,0.686879778905442,371710,76440.6666666667
1624.48371580591,0.681942256561419,362463,75391.3333333333
1627.50062134746,0.678552860415382,353431,74088.6666666667
1630.51322697207,0.678249336003791,344400,72246
1633.52153267973,0.673750414928399,335271,71063.3333333333
1636.52553847044,0.670095783182335,325918,69664.6666666667
1639.52524434419,0.667539003187864,316982,68154.6666666667
1643.51816341617,0.663580647245418,305331,66250.6666666667
1646.50783615037,0.661666456156387,295134,64321
1649.49320896763,0.655916174749878,285124,62967.6666666667
1652.47428186793,0.653263087561026,274811,61062
1655.45105485129,0.651470155662477,264180,58942.6666666667
1658.42352791769,0.644149766116953,250984,56950.3333333333
1661.39170106714,0.63568866896314,235469,54481
1664.35557429964,0.626343895175145,216668,51221.3333333333
1667.31514761519,0.614674425245958,196183,47641.6666666667
1670.27042101379,0.600020776422184,174581,43850.6666666667
1674.20409678556,0.574237222679078,143952,38369
1677.14933704461,0.561701529236568,123337,33837
1680.09027738671,0.552019233371332,105172,29504
1683.02691781185,0.558211817336748,88996,24612.6666666667
1685.95925832005,0.556543900017027,75582,20983.3333333333
1688.8872989113,0.557799808689213,63863,17678.6666666667
1691.81103958559,0.565796692000281,55494,15081.6666666667
1694.73048034294,0.579184360300861,47752,12583.6666666667
1697.64562118333,0.582484107851233,41556,10868
1700.55646210678,0.578743148209636,35632,9399.33333333333
