***Scan Config Information***,,,,,,,***Reference Scan Information***,,,,,,,,
Scan Config Name:,Column 1,,,,,,Scan Config Name:,Local New Reference,,,,,,,
Scan Config Type:,Slew,Num Section:,1,,,,Scan Config Type:,Slew,Num Section:,1,,,,,
Section Config Type:,Column,,,,,,Section Config Type:,Column,,,,,,,
Start Wavelength (nm):,900,,,,,,Start Wavelength (nm):,900,,,,,,,
End Wavelength (nm):,1700,,,,,,End Wavelength (nm):,1700,,,,,,,
Pattern Width (nm):,7.03,,,,,,Pattern Width (nm):,7.03,,,,,,,
Exposure (ms):,0.635,,,,,,Exposure (ms):,0.635,,,,,,,
Digital Resolution:,228,,,,,,Digital Resolution:,228,,,,,,,
Num Repeats:,3,,,,,,Num Repeats:,3,,,,,,,
PGA Gain:,64,(FixedPGA),,,,,PGA Gain:,64,(AutoPGA),,,,,,
System Temp (C):,34.51,,,,,,System Temp (C):,29.46,,,,,,,
Humidity (%):,35.34,,,,,,Humidity (%):,52.02,,,,,,,
Lamp Indicator:,1145,,,,,,Lamp Indicator:,1099,,,,,,,
Data Date-Time:,2025/08/09T14:46:41,,,,,,Data Date-Time:,2025/08/09T13:22:04,,,,,,,
Total Measurement Time in sec:,2.4190005,,,,,,,,,,,,,,
,,,,,,,,,,,,,,,
***General Information***,,,,,,,***Calibration Coefficients***,,,,,,,,
Model Name:,NIR-R210,,,,,,Shift Vector Coefficients:,-5.72686255341989,0.0566949379947153,-0.000136804211203387,,,,,
Serial Number:,734R012,(N/A),,,,,Pixel to Wavelength Coefficients:,1812.09528251196,-0.912948081806683,-0.000238884275033469,,,,,
GUI Version:,3.9.8,Revision:,830,,,,Versions (Cal/Ref/Cfg):,1,3,1,,,,,
TIVA Version:,2.4.10,,,,,,***Lamp Usage ***,,,,,,,,
DLPC Version:,2.0.0,,,,,,Total Time(hh:mm:ss):,N/A,,,,,,,
UUID:,D6:65:30:51:9A:41:0D:28,,,,,,***Device/Error/Activation Status***,,,,,,,,
Main Board Version:,D,,,,,,Device Status:,0x00000001,Activation Status:,Not activated,,,,,
Detector Board Version:,B,,,,,,Error status:,0x00000000,Error Code:,0x00000000000000000000000000000000,,,,,
,,,,,,,,,Error Details:,Not found,,,,,
***Scan Data***,,,,,,,,,,,,,,,
Num Scan:,3

Wavelength (nm),Absorbance (AU),Reference Signal (unitless),Sample Signal (unitless)
900.894453969064,0.76593454526875,61165,10485
904.808608847648,0.752647459770101,71524,12641.6666666667
910.020793259393,0.761816918698601,81743,14146
913.924914998427,0.764638487240892,88693,15249.3333333333
917.82473682051,0.748480921082587,96017,17134.3333333333
921.720258725642,0.76406250755347,105300,18128.6666666667
925.611480713823,0.761688152965632,115956,20072.6666666667
929.498402785054,0.760834203854379,129721,22499.6666666667
933.381024939334,0.760848820152666,145333,25206.6666666667
937.259347176664,0.75845128529732,161102,28096.3333333333
941.133369497043,0.748739019619899,176880,31545.6666666667
945.003091900472,0.74137599204854,190875,34623.6666666667
948.86851438695,0.742024981449423,204873,37107.3333333333
954.015722275886,0.733311904308908,222646,41143.6666666667
957.871111622812,0.73112195541849,236435,43912.6666666667
961.722201052788,0.729113160673398,250209,46686.3333333333
965.568990565813,0.727862263190335,265026,49593.6666666667
969.411480161888,0.724875567901812,277918,52365
973.249669841012,0.721616690734777,291257,55291.6666666667
977.083559603186,0.723620941346107,304760,57588.6666666667
980.913149448408,0.725639295280771,316097,59454
984.738439376681,0.722212027832394,326323,61863.6666666667
988.559429388003,0.719796993029382,334592,63785
993.64739397673,0.723694985528601,344807,65145
997.458350848501,0.723207783639124,349688,66141.3333333333
1001.26500780332,0.720833107299017,353644,67256.3333333333
1005.06736484119,0.722556487170684,357116,67647.6666666667
1008.86542196211,0.725674120004267,359485,67609.3333333333
1012.65917916608,0.724023747510685,360943,68142
1016.44863645309,0.72586438893606,363031,68246.3333333333
1020.23379382316,0.726909108057937,363948,68254.3333333333
1024.01465127628,0.725060842932628,364282,68608.3333333333
1027.79120881244,0.725959461239064,365769,68746
1032.81993010096,0.72751314390524,367653,68853.3333333333
1036.58645449757,0.727240783511906,369308,69206.6666666667
1040.34867897724,0.725691596403721,370049,69593.3333333333
1044.10660353995,0.728916059937367,372221,69484
1047.86022818571,0.727560090927596,373567,69953.3333333333
1051.60955291452,0.727967982276562,375404,70231.3333333333
1055.35457772639,0.727305521364664,377310,70695.6666666667
1059.0953026213,0.728162534248694,379148,70900
1062.83172759926,0.726050026373707,381319,71653.6666666667
1066.56385266027,0.729781962413405,384184,71574.3333333333
1071.53333064858,0.728718321315005,387908,72445.3333333333
1075.25542257003,0.729556943977493,390607,72808.6666666667
1078.97321457454,0.728627495500017,393646,73532.3333333333
1082.6867066621,0.728114350017257,396671,74185
1086.3958988327,0.729160590168231,399870,74603.3333333333
1090.10079108636,0.730702366728392,402904,74903
1093.80138342306,0.730913538437054,405606,75368.6666666667
1097.49767584282,0.730933842158646,407871,75786
1101.18966834562,0.734160789234449,411381,75872.3333333333
1104.87736093148,0.733674845881293,413721,76389.3333333333
1108.56075360038,0.733905876991461,415453,76668.3333333333
1113.46525506588,0.739417924633428,418471,76251.3333333333
1117.13861459523,0.739608430740301,419674,76437
1120.80767420763,0.742744595590417,421639,76242.3333333333
1124.47243390308,0.74544192946773,423459,76097.3333333333
1128.13289368158,0.750181907121377,424228,75408
1131.78905354313,0.757736629538755,426045,74425
1135.44091348773,0.763707784423036,426478,73483.3333333333
1139.08847351537,0.774384324702325,427601,71887.6666666667
1142.73173362607,0.782239438968879,428210,70699.6666666667
1146.37069381982,0.796454045832186,430333,68762.3333333333
1151.21595198511,0.81089270156899,431572,66705.3333333333
1154.84487903931,0.826242604383361,433166,64626.6666666667
1158.46950617655,0.840311652142922,435811,62948.6666666667
1162.08983339684,0.855272483185098,437511,61054.3333333333
1165.70586070019,0.867886234771524,440470,59707.6666666667
1169.31758808658,0.878085546086366,443261,58691.3333333333
1172.92501555602,0.88653519512516,446330,57959
1176.52814310851,0.897747031071918,450024,56949.3333333333
1180.12697074405,0.905226505976071,453937,56463.6666666667
1183.72149846264,0.915654559531047,458109,55630.6666666667
1188.50751332773,0.929770942113381,464689,54625
1192.09200790677,0.934521551891011,470015,54650
1195.67220256885,0.940686852801808,476072,54574
1199.24809731399,0.939972081392751,482088,55354.6666666667
1202.81969214218,0.942719904178133,488677,55757.3333333333
1206.38698705341,0.944103140592518,496329,56450.3333333333
1209.9499820477,0.94354782189547,503908,57385.6666666667
1213.50867712503,0.937294356958462,511433,59087.3333333333
1217.06307228542,0.934952078991365,519363,60328
1220.61316752885,0.922967964053881,528308,63084
1224.15896285534,0.910388429243088,536018,65885.6666666667
1228.88000119761,0.895276477370009,547278,69651.6666666667
1232.41576338454,0.889499644414623,557050,71844.6666666667
1235.94722565453,0.876527200427613,566065,75221
1239.47438800756,0.872618415721982,575725,77196.3333333333
1242.99725044364,0.866309677500789,584235,79483.6666666667
1246.51581296276,0.860777174574729,594054,81855.6666666667
1250.03007556494,0.854793766970729,602549,84178
1253.54003825017,0.850909543969969,612257,86302.6666666667
1257.04570101845,0.847992208317689,621056,88133
1260.54706386978,0.845120525093223,630966,90133.3333333333
1265.20885891184,0.845946170333494,643606,91764.3333333333
1268.70018862362,0.844388538995,652183,93321.3333333333
1272.18721841844,0.843272364385111,661425,94887.3333333333
1275.66994829632,0.843504807280061,669244,95957.6666666667
1279.14837825724,0.842985896179551,677027,97189.6666666667
1282.62250830122,0.842511769525639,683423,98215
1286.09233842824,0.84046569362949,689796,99599
1289.55786863831,0.840245225037961,695579,100485
1293.01909893143,0.838948985303359,699163,101304.666666667
1296.4760293076,0.839467045868043,703715,101842.666666667
1301.07858104946,0.840840705404932,709736,102389.666666667
1304.52547828608,0.840112501731976,713970,103173.333333333
1307.96807560575,0.841266775210349,717163,103359.666666667
1311.40637300847,0.842633272371687,719966,103437.666666667
1314.84037049424,0.842385140482839,722284,103830
1318.27006806305,0.845480668319987,725225,103512.333333333
1321.69546571492,0.850548094693339,727780,102672
1325.11656344983,0.852577142885719,730006,102506
1328.5333612678,0.858434477468328,732700,101506
1331.94585916881,0.864577559942261,734345,100305
1336.48916761047,0.870966059163479,736319,99106
1339.89163237193,0.878365642953651,737558,97595.6666666667
1343.28979721644,0.883095359010077,738142,96615
1346.683662144,0.893180196696724,738619,94458.3333333333
1350.07322715461,0.901238880355047,738629,92723
1353.45849224827,0.913787954399412,737833,89985
1356.83945742498,0.919928917398669,736434,88553.3333333333
1360.21612268474,0.928217612472436,736474,86884
1363.58848802755,0.93947478165511,735327,84529
1366.95655345341,0.946108241268219,735097,83221.6666666667
1370.32031896232,0.955093730575718,734900,81495.6666666667
1374.79865088116,0.964585319964358,735706,79821.3333333333
1378.15238325052,0.976438577197252,734943,77591.6666666667
1381.50181570292,0.985352942363276,732762,75789.6666666667
1384.84694823838,0.996877580740652,731846,73712.6666666667
1388.18778085688,1.00492305866127,730676,72244
1391.52431355844,1.02046423159406,728938,69538.6666666667
1394.85654634304,1.03482535778243,727102,67107.3333333333
1398.18447921069,1.04753701174771,724362,64926
1401.50811216139,1.06264130753006,722247,62523.6666666667
1404.82744519514,1.07534397441988,719566,60496
1409.24653381378,1.09811747069375,716272,57142.6666666667
1412.55583370798,1.11637371021901,714694,54669.6666666667
1415.86083368523,1.13086794918291,713042,52753
1419.16153374553,1.14786192433923,711262,50602
1422.45793388888,1.16179059489127,710137,48927.3333333333
1425.75003411527,1.17396538601132,709598,47538.6666666667
1429.03783442472,1.18871590943153,708041,45850.3333333333
1432.32133481722,1.19474497868755,708142,45224.6666666667
1435.60053529276,1.20436174933081,706756,44147.6666666667
1438.87543585136,1.20823082630924,707115,43778.3333333333
1443.23528116978,1.21936486407549,706912,42658
1446.50014858883,1.22431676774739,705956,42117.3333333333
1449.76071609092,1.22528921224658,705433,41992
1453.01698367606,1.22905274876263,705077,41608.6666666667
1456.26895134425,1.23200210153481,703933,41260
1459.5166190955,1.23443321695519,702932,40971.3333333333
1462.75998692979,1.23403221787373,700832,40886.6666666667
1465.99905484713,1.23455998669224,698515,40702
1469.23382284752,1.23718969750693,696323,40329.3333333333
1472.46429093096,1.23695105683916,693306,40176.6666666667
1476.76489294917,1.23970774347321,689657,39712.3333333333
1479.98532789306,1.24078895988587,686838,39451.6666666667
1483.20146292,1.23819445867435,684443,39549.6666666667
1486.41329802998,1.23814160912291,680351,39318
1489.62083322302,1.24039820533289,676729,38906
1492.8240684991,1.2417311361928,673732,38615
1496.02300385824,1.24235893792571,669890,38339.3333333333
1499.21763930042,1.2401668932827,665764,38296
1502.40797482566,1.23695682939141,662328,38381
1505.59401043394,1.24355147237481,658060,37559
1508.77574612527,1.23705427440038,653668,37870.6666666667
1513.01137162068,1.2329248519523,647807,37889.6666666667
1516.18307417246,1.23678960615045,642776,37262.3333333333
1519.35047680729,1.22710690395223,636853,37751.3333333333
1522.51357952517,1.234047727184,631257,36826.3333333333
1525.6723823261,1.226100646427,626083,37199
1528.82688521008,1.22231257146875,619667,37140.3333333333
1531.9770881771,1.21684196520311,614140,37275.6666666667
1535.12299122718,1.22133963119167,607382,36485.6666666667
1538.26459436031,1.22541610822831,601756,35810
1541.40189757648,1.2168175236948,594204,36067.6666666667
1545.57827977168,1.21321816307263,584861,35796
1548.70554984831,1.20810821003795,578079,35799.6666666667
1551.82852000798,1.21009447241008,571488,35230
1554.94719025071,1.20644700343177,563266,35016
1558.06156057648,1.20252732651066,555713,34859.6666666667
1561.1716309853,1.20439450233254,547023,34167.3333333333
1564.27740147717,1.20285223127352,540016,33849.6666666667
1567.37887205209,1.20171155715539,531678,33414.6666666667
1570.47604271006,1.19860655014619,523035,33107.3333333333
1573.56891345108,1.19685050429369,514017,32668.3333333333
1577.68605234607,1.19345601683896,502079,32160
1580.76888994754,1.19265850504057,494135,31709.3333333333
1583.84742763206,1.18329440639982,484769,31786.3333333333
1586.92166539963,1.18530888447703,475460,31031.6666666667
1589.99160325024,1.17884484800422,466116,30878
1593.05724118391,1.17876433584069,456969,30277.6666666667
1596.11857920063,1.17415076392584,447506,29967.3333333333
1599.17561730039,1.17361661183892,439245,29450.3333333333
1602.2283554832,1.17156364132943,429113,28907.3333333333
1605.27679374907,1.16168766084759,419968,28942
1609.33468934385,1.16053790652171,407521,28158.6666666667
1612.37309447016,1.15738816729836,398489,27735
1615.40719967952,1.15607296113301,389802,27212.6666666667
1618.43700497194,1.14883468987179,380551,27013.3333333333
1621.4625103474,1.14148646174016,371710,26836
1624.48371580591,1.13882381787818,362463,26329.3333333333
1627.50062134746,1.13149222329879,353431,26110.3333333333
1630.51322697207,1.13344509878873,344400,25329
1633.52153267973,1.13472577717408,335271,24585
1636.52553847044,1.12675208852262,325918,24342
1639.52524434419,1.1193841305473,316982,24079.6666666667
1643.51816341617,1.11731558111731,305331,23305.3333333333
1646.50783615037,1.11276430766974,295134,22764.3333333333
1649.49320896763,1.10921584703938,285124,22172.6666666667
1652.47428186793,1.10801194142024,274811,21430
1655.45105485129,1.11058412095964,264180,20479.3333333333
1658.42352791769,1.09436633871137,250984,20196.6666666667
1661.39170106714,1.08989349199635,235469,19144.3333333333
1664.35557429964,1.09125377521796,216668,17560.6666666667
1667.31514761519,1.07285861772685,196183,16588.3333333333
1670.27042101379,1.06055358126088,174581,15186
1674.20409678556,1.04664157091666,143952,12929.3333333333
1677.14933704461,1.04441616032008,123337,11134.6666666667
1680.09027738671,1.03448713116359,105172,9714.33333333333
1683.02691781185,1.03546837270272,88996,8201.66666666667
1685.95925832005,1.05850172508155,75582,6605.66666666667
1688.8872989113,1.05605427368816,63863,5613
1691.81103958559,1.0503139969901,55494,4942.33333333333
1694.73048034294,1.07411779533098,47752,4026
1697.64562118333,1.0894173319422,41556,3382.33333333333
1700.55646210678,1.13742399673706,35632,2596.66666666667
