***Scan Config Information***,,,,,,,***Reference Scan Information***,,,,,,,,
Scan Config Name:,Column 1,,,,,,Scan Config Name:,Local New Reference,,,,,,,
Scan Config Type:,Slew,Num Section:,1,,,,Scan Config Type:,Slew,Num Section:,1,,,,,
Section Config Type:,Column,,,,,,Section Config Type:,Column,,,,,,,
Start Wavelength (nm):,900,,,,,,Start Wavelength (nm):,900,,,,,,,
End Wavelength (nm):,1700,,,,,,End Wavelength (nm):,1700,,,,,,,
Pattern Width (nm):,7.03,,,,,,Pattern Width (nm):,7.03,,,,,,,
Exposure (ms):,0.635,,,,,,Exposure (ms):,0.635,,,,,,,
Digital Resolution:,228,,,,,,Digital Resolution:,228,,,,,,,
Num Repeats:,3,,,,,,Num Repeats:,3,,,,,,,
PGA Gain:,64,(FixedPGA),,,,,PGA Gain:,64,(AutoPGA),,,,,,
System Temp (C):,34.52,,,,,,System Temp (C):,29.46,,,,,,,
Humidity (%):,35.16,,,,,,Humidity (%):,52.02,,,,,,,
Lamp Indicator:,1146,,,,,,Lamp Indicator:,1099,,,,,,,
Data Date-Time:,2025/08/09T14:47:48,,,,,,Data Date-Time:,2025/08/09T13:22:04,,,,,,,
Total Measurement Time in sec:,2.4148741,,,,,,,,,,,,,,
,,,,,,,,,,,,,,,
***General Information***,,,,,,,***Calibration Coefficients***,,,,,,,,
Model Name:,NIR-R210,,,,,,Shift Vector Coefficients:,-5.72686255341989,0.0566949379947153,-0.000136804211203387,,,,,
Serial Number:,734R012,(N/A),,,,,Pixel to Wavelength Coefficients:,1812.09528251196,-0.912948081806683,-0.000238884275033469,,,,,
GUI Version:,3.9.8,Revision:,830,,,,Versions (Cal/Ref/Cfg):,1,3,1,,,,,
TIVA Version:,2.4.10,,,,,,***Lamp Usage ***,,,,,,,,
DLPC Version:,2.0.0,,,,,,Total Time(hh:mm:ss):,N/A,,,,,,,
UUID:,D6:65:30:51:9A:41:0D:28,,,,,,***Device/Error/Activation Status***,,,,,,,,
Main Board Version:,D,,,,,,Device Status:,0x00000001,Activation Status:,Not activated,,,,,
Detector Board Version:,B,,,,,,Error status:,0x00000000,Error Code:,0x00000000000000000000000000000000,,,,,
,,,,,,,,,Error Details:,Not found,,,,,
***Scan Data***,,,,,,,,,,,,,,,
Num Scan:,3

Wavelength (nm),Absorbance (AU),Reference Signal (unitless),Sample Signal (unitless)
900.894453969064,0.555654010829721,61165,17015.6666666667
904.808608847648,0.549394354105208,71524,20186.3333333333
910.020793259393,0.557228999984617,81743,22658
913.924914998427,0.559817760769137,88693,24438.3333333333
917.82473682051,0.558518129480847,96017,26535.6666666667
921.720258725642,0.565147134043022,105300,28660.3333333333
925.611480713823,0.570161831679757,115956,31198.3333333333
929.498402785054,0.574687954694317,129721,34540
933.381024939334,0.576047045426142,145333,38576
937.259347176664,0.578140131781213,161102,42556
941.133369497043,0.576725095745307,176880,46876.3333333333
945.003091900472,0.572634218642729,190875,51064
948.86851438695,0.574154234864265,204873,54617.3333333333
954.015722275886,0.575956386848959,222646,59109.6666666667
957.871111622812,0.580091315941968,236435,62175.6666666667
961.722201052788,0.580176048153777,250209,65785
965.568990565813,0.583745494205768,265026,69110.3333333333
969.411480161888,0.586696788804236,277918,71981.3333333333
973.249669841012,0.588320418971898,291257,75154.6666666667
977.083559603186,0.592457675655143,304760,77893.3333333333
980.913149448408,0.593711698552594,316097,80558
984.738439376681,0.596923592754922,326323,82551.3333333333
988.559429388003,0.59839957474948,334592,84356
993.64739397673,0.600031436364314,344807,86605.3333333333
997.458350848501,0.603081244827109,349688,87216.6666666667
1001.26500780332,0.601750631534686,353644,88474
1005.06736484119,0.60395640228499,357116,88890
1008.86542196211,0.606710625152387,359485,88914
1012.65917916608,0.607015347965364,360943,89212
1016.44863645309,0.608748714365505,363031,89370.6666666667
1020.23379382316,0.609679148836781,363948,89404.6666666667
1024.01465127628,0.610741907540517,364282,89268
1027.79120881244,0.612353814971472,365769,89300.3333333333
1032.81993010096,0.611208472843887,367653,89997.3333333333
1036.58645449757,0.610976943323622,369308,90450.6666666667
1040.34867897724,0.610904202405538,370049,90647.3333333333
1044.10660353995,0.609534853838405,372221,91467.3333333333
1047.86022818571,0.611290868491896,373567,91427.6666666667
1051.60955291452,0.609639244196582,375404,92227.3333333333
1055.35457772639,0.609439029022031,377310,92738.3333333333
1059.0953026213,0.606153969139897,379148,93897.6666666667
1062.83172759926,0.605235129248077,381319,94635.3333333333
1066.56385266027,0.604496491756316,384184,95508.6666666667
1071.53333064858,0.604366471257657,387908,96463.3333333333
1075.25542257003,0.602275372062102,390607,97603.3333333333
1078.97321457454,0.601133505094468,393646,98621.6666666667
1082.6867066621,0.602318817534629,396671,99108.6666666667
1086.3958988327,0.601347377731114,399870,100131.666666667
1090.10079108636,0.601296065695629,402904,100903.333333333
1093.80138342306,0.601100963159275,405606,101625.666666667
1097.49767584282,0.600654269531372,407871,102298.333333333
1101.18966834562,0.60286553242094,411381,102654.666666667
1104.87736093148,0.602765631526756,413721,103262.333333333
1108.56075360038,0.602808759769914,415453,103684.333333333
1113.46525506588,0.60292743057425,418471,104409
1117.13861459523,0.603912155395387,419674,104472
1120.80767420763,0.607092506287032,421639,104195.333333333
1124.47243390308,0.608306428664733,423459,104353
1128.13289368158,0.610394811730185,424228,104041
1131.78905354313,0.616754601479941,426045,102967.666666667
1135.44091348773,0.620129975598244,426478,102274.333333333
1139.08847351537,0.625102132957477,427601,101376.333333333
1142.73173362607,0.63271487624975,428210,99756.6666666667
1146.37069381982,0.641578192258563,430333,98226
1151.21595198511,0.652973581294039,431572,95957.6666666667
1154.84487903931,0.662774074189462,433166,94163
1158.46950617655,0.672207522223929,435811,92702.3333333333
1162.08983339684,0.679433422388605,437511,91528.3333333333
1165.70586070019,0.689673824924774,440470,90000
1169.31758808658,0.696962202066643,443261,89063
1172.92501555602,0.70135887515697,446330,88776.3333333333
1176.52814310851,0.706798149267608,450024,88397
1180.12697074405,0.712647826443327,453937,87972.6666666667
1183.72149846264,0.717695303798675,458109,87755.3333333333
1188.50751332773,0.726456691614819,464689,87238
1192.09200790677,0.732923720600128,470015,86933.6666666667
1195.67220256885,0.73724415113321,476072,87182.3333333333
1199.24809731399,0.737141026412617,482088,88305
1202.81969214218,0.739064589796816,488677,89116.3333333333
1206.38698705341,0.740077091575139,496329,90301
1209.9499820477,0.74128945108805,503908,91424.3333333333
1213.50867712503,0.73814438357843,511433,93464
1217.06307228542,0.735737542489761,519363,95440.6666666667
1220.61316752885,0.727594298798007,528308,98922
1224.15896285534,0.719309400692602,536018,102298.666666667
1228.88000119761,0.709040737363615,547278,106946.666666667
1232.41576338454,0.703082486758906,557050,110360
1235.94722565453,0.697707213269512,566065,113542.666666667
1239.47438800756,0.69456816224101,575725,116318
1242.99725044364,0.69124868272166,584235,118943
1246.51581296276,0.687834094750858,594054,121896.666666667
1250.03007556494,0.685562005718489,602549,124288.333333333
1253.54003825017,0.684492049178654,612257,126602.333333333
1257.04570101845,0.682644306949542,621056,128969.333333333
1260.54706386978,0.68106369203314,630966,131505
1265.20885891184,0.68079637833015,643606,134222
1268.70018862362,0.681196890105334,652183,135885.333333333
1272.18721841844,0.682410646738657,661425,137426.333333333
1275.66994829632,0.681899494417563,669244,139214.666666667
1279.14837825724,0.683196608433715,677027,140413.666666667
1282.62250830122,0.682479752457073,683423,141974.333333333
1286.09233842824,0.682357311290975,689796,143338.666666667
1289.55786863831,0.681465941661334,695579,144837.333333333
1293.01909893143,0.681772159563274,699163,145481
1296.4760293076,0.681755871156973,703715,146433.666666667
1301.07858104946,0.683274593705194,709736,147171
1304.52547828608,0.684020221880094,713970,147795
1307.96807560575,0.68496312520521,717163,148134
1311.40637300847,0.685718133419721,719966,148454.666666667
1314.84037049424,0.686679443268326,722284,148603.333333333
1318.27006806305,0.688907192656367,725225,148445
1321.69546571492,0.691937009218633,727780,147932.333333333
1325.11656344983,0.695207227911487,730006,147271.666666667
1328.5333612678,0.698506932726407,732700,146696.333333333
1331.94585916881,0.702746721405054,734345,145597.333333333
1336.48916761047,0.709212500738209,736319,143831.333333333
1339.89163237193,0.714624850809631,737558,142289
1343.28979721644,0.720344088285561,738142,140538.666666667
1346.683662144,0.725974692034351,738619,138818
1350.07322715461,0.732625012669294,738629,136710.333333333
1353.45849224827,0.741196959360933,737833,133894
1356.83945742498,0.747863641468943,736434,131604.333333333
1360.21612268474,0.753920648498571,736474,129788.666666667
1363.58848802755,0.760658202400578,735327,127591.666666667
1366.95655345341,0.767804752363727,735097,125470
1370.32031896232,0.772652485058487,734900,124044
1374.79865088116,0.783268571276079,735706,121181.333333333
1378.15238325052,0.791465244917654,734943,118792.333333333
1381.50181570292,0.798450661490124,732762,116550
1384.84694823838,0.808329600599151,731846,113786.333333333
1388.18778085688,0.81606713394072,730676,111598.333333333
1391.52431355844,0.825586945495227,728938,108919
1394.85654634304,0.837257471743621,727102,105764
1398.18447921069,0.845138411892299,724362,103470.666666667
1401.50811216139,0.85587772060015,722247,100648.666666667
1404.82744519514,0.866180010875471,719566,97924.3333333333
1409.24653381378,0.883165379931391,716272,93737.3333333333
1412.55583370798,0.89464784480418,714694,91090.3333333333
1415.86083368523,0.90576636164308,713042,88582.6666666667
1419.16153374553,0.915296426630701,711262,86443.6666666667
1422.45793388888,0.924624222995868,710137,84473
1425.75003411527,0.93400429473944,709598,82605.3333333333
1429.03783442472,0.941489396682741,708041,81015.6666666667
1432.32133481722,0.947898011754155,708142,79840.3333333333
1435.60053529276,0.954383250447638,706756,78503
1438.87543585136,0.957527240428632,707115,77976.3333333333
1443.23528116978,0.960695472280808,706912,77387.3333333333
1446.50014858883,0.96732449962089,705956,76112
1449.76071609092,0.966132395595979,705433,76264.6666666667
1453.01698367606,0.970554280254635,705077,75454
1456.26895134425,0.969595878184724,703933,75498
1459.5166190955,0.972698301569,702932,74854
1462.75998692979,0.973930093581915,700832,74419
1465.99905484713,0.975043798730146,698515,73983
1469.23382284752,0.976665234957358,696323,73476
1472.46429093096,0.97626953231795,693306,73224.3333333333
1476.76489294917,0.977369634036096,689657,72654.6666666667
1479.98532789306,0.979184165194902,686838,72056
1483.20146292,0.978497671880573,684443,71918.3333333333
1486.41329802998,0.979799863648978,680351,71274.3333333333
1489.62083322302,0.980974898543967,676729,70703.3333333333
1492.8240684991,0.981163402074235,673732,70359.6666666667
1496.02300385824,0.979487010284045,669890,70229
1499.21763930042,0.980334759476453,665764,69660.3333333333
1502.40797482566,0.980237533769157,662328,69316.3333333333
1505.59401043394,0.978936216569541,658060,69076.3333333333
1508.77574612527,0.979512405787787,653668,68524.3333333333
1513.01137162068,0.980431648861546,647807,67766.3333333333
1516.18307417246,0.979786540634521,642776,67340
1519.35047680729,0.978987597120712,636853,66842.3333333333
1522.51357952517,0.978262745644999,631257,66365.6666666667
1525.6723823261,0.978265236080481,626083,65821.3333333333
1528.82688521008,0.979842299082787,619667,64910.6666666667
1531.9770881771,0.979266889469519,614140,64417
1535.12299122718,0.978437072858553,607382,63830
1538.26459436031,0.979987975335563,601756,63013.3333333333
1541.40189757648,0.977627261038825,594204,62561.6666666667
1545.57827977168,0.977845773617885,584861,61547
1548.70554984831,0.977253438489403,578079,60916.3333333333
1551.82852000798,0.979664888568363,571488,59888.3333333333
1554.94719025071,0.977592935514754,563266,59309
1558.06156057648,0.979343433364482,555713,58278.3333333333
1561.1716309853,0.97982570136032,547023,57303.3333333333
1564.27740147717,0.979298718463157,540016,56638
1567.37887205209,0.979235067228717,531678,55771.6666666667
1570.47604271006,0.980554011468076,523035,54698.6666666667
1573.56891345108,0.983387431162876,514017,53406
1577.68605234607,0.984921856922902,502079,51981.6666666667
1580.76888994754,0.984290178055045,494135,51233.6666666667
1583.84742763206,0.98583583291503,484769,50084
1586.92166539963,0.985004730833005,475460,49216.3333333333
1589.99160325024,0.989714708657244,466116,47728.6666666667
1593.05724118391,0.989102991233864,456969,46858
1596.11857920063,0.985618269832259,447506,46257.3333333333
1599.17561730039,0.987273837574611,439245,45230.6666666667
1602.2283554832,0.987250946118795,429113,44189.6666666667
1605.27679374907,0.987119645877159,419968,43261
1609.33468934385,0.987197227345523,407521,41971.3333333333
1612.37309447016,0.990846827129278,398489,40697.6666666667
1615.40719967952,0.983725167273438,389802,40468.6666666667
1618.43700497194,0.984486972898152,380551,39439
1621.4625103474,0.989195686073129,371710,38107.3333333333
1624.48371580591,0.988288995885138,362463,37237
1627.50062134746,0.988402002501119,353431,36299.6666666667
1630.51322697207,0.989612536237675,344400,35273.6666666667
1633.52153267973,0.987774155370712,335271,34484.3333333333
1636.52553847044,0.994585633195427,325918,33000.6666666667
1639.52524434419,0.985960347859878,316982,32739.6666666667
1643.51816341617,0.987675311310928,305331,31412
1646.50783615037,0.988390324427541,295134,30313
1649.49320896763,0.990146976807154,285124,29166.6666666667
1652.47428186793,0.987176067732883,274811,28304.6666666667
1655.45105485129,0.984524655658638,264180,27376.3333333333
1658.42352791769,0.97955820330102,250984,26308
1661.39170106714,0.976642301041684,235469,24848
1664.35557429964,0.967290951539067,216668,23361.6666666667
1667.31514761519,0.961132852543915,196183,21455
1670.27042101379,0.945236749326678,174581,19804.3333333333
1674.20409678556,0.932322863467322,143952,16822.6666666667
1677.14933704461,0.926958718411471,123337,14592.6666666667
1680.09027738671,0.909194611713975,105172,12963
1683.02691781185,0.910710593050658,88996,10931
1685.95925832005,0.929142248000936,75582,8897.66666666667
1688.8872989113,0.936252413420697,63863,7396
1691.81103958559,0.932380697757848,55494,6484.33333333333
1694.73048034294,0.938892164958762,47752,5496.66666666667
1697.64562118333,0.978384251295842,41556,4367.66666666667
1700.55646210678,1.04259286083935,35632,3230.33333333333
