***Scan Config Information***,,,,,,,***Reference Scan Information***,,,,,,,,
Scan Config Name:,Column 1,,,,,,Scan Config Name:,Local New Reference,,,,,,,
Scan Config Type:,Slew,Num Section:,1,,,,Scan Config Type:,Slew,Num Section:,1,,,,,
Section Config Type:,Column,,,,,,Section Config Type:,Column,,,,,,,
Start Wavelength (nm):,900,,,,,,Start Wavelength (nm):,900,,,,,,,
End Wavelength (nm):,1700,,,,,,End Wavelength (nm):,1700,,,,,,,
Pattern Width (nm):,7.03,,,,,,Pattern Width (nm):,7.03,,,,,,,
Exposure (ms):,0.635,,,,,,Exposure (ms):,0.635,,,,,,,
Digital Resolution:,228,,,,,,Digital Resolution:,228,,,,,,,
Num Repeats:,3,,,,,,Num Repeats:,3,,,,,,,
PGA Gain:,64,(FixedPGA),,,,,PGA Gain:,64,(AutoPGA),,,,,,
System Temp (C):,34.4,,,,,,System Temp (C):,29.46,,,,,,,
Humidity (%):,35.63,,,,,,Humidity (%):,52.02,,,,,,,
Lamp Indicator:,1143,,,,,,Lamp Indicator:,1099,,,,,,,
Data Date-Time:,2025/08/09T14:41:44,,,,,,Data Date-Time:,2025/08/09T13:22:04,,,,,,,
Total Measurement Time in sec:,2.4098922,,,,,,,,,,,,,,
,,,,,,,,,,,,,,,
***General Information***,,,,,,,***Calibration Coefficients***,,,,,,,,
Model Name:,NIR-R210,,,,,,Shift Vector Coefficients:,-5.72686255341989,0.0566949379947153,-0.000136804211203387,,,,,
Serial Number:,734R012,(N/A),,,,,Pixel to Wavelength Coefficients:,1812.09528251196,-0.912948081806683,-0.000238884275033469,,,,,
GUI Version:,3.9.8,Revision:,830,,,,Versions (Cal/Ref/Cfg):,1,3,1,,,,,
TIVA Version:,2.4.10,,,,,,***Lamp Usage ***,,,,,,,,
DLPC Version:,2.0.0,,,,,,Total Time(hh:mm:ss):,N/A,,,,,,,
UUID:,D6:65:30:51:9A:41:0D:28,,,,,,***Device/Error/Activation Status***,,,,,,,,
Main Board Version:,D,,,,,,Device Status:,0x00000001,Activation Status:,Not activated,,,,,
Detector Board Version:,B,,,,,,Error status:,0x00000000,Error Code:,0x00000000000000000000000000000000,,,,,
,,,,,,,,,Error Details:,Not found,,,,,
***Scan Data***,,,,,,,,,,,,,,,
Num Scan:,3

Wavelength (nm),Absorbance (AU),Reference Signal (unitless),Sample Signal (unitless)
900.894453969064,0.331241803321757,61165,28527.3333333333
904.808608847648,0.335872057421603,71524,33005
910.020793259393,0.334128509400415,81743,37872.3333333333
913.924914998427,0.340269928612341,88693,40515.3333333333
917.82473682051,0.336870187985487,96017,44205.6666666667
921.720258725642,0.342147261322186,105300,47894
925.611480713823,0.344605698057504,115956,52443
929.498402785054,0.34839833564747,129721,58158.3333333333
933.381024939334,0.349613494293099,145333,64975.6666666667
937.259347176664,0.350742668817394,161102,71838.6666666667
941.133369497043,0.349412578003781,176880,79116.3333333333
945.003091900472,0.348043655796965,190875,85645.6666666667
948.86851438695,0.346946973296553,204873,92159
954.015722275886,0.34524146064758,222646,100548
957.871111622812,0.34644780274917,236435,106479
961.722201052788,0.34781747838585,250209,112327.333333333
965.568990565813,0.351011617895997,265026,118107.333333333
969.411480161888,0.34953523371667,277918,124274.333333333
973.249669841012,0.35218885534966,291257,129445.666666667
977.083559603186,0.354739781001056,304760,134653.666666667
980.913149448408,0.354958807381901,316097,139592.333333333
984.738439376681,0.355297256754414,326323,143996
988.559429388003,0.35664019817493,334592,147189
993.64739397673,0.358374847027938,344807,151078
997.458350848501,0.357991284806591,349688,153352
1001.26500780332,0.359280964156512,353644,154627
1005.06736484119,0.359997551926338,357116,155887.666666667
1008.86542196211,0.361011981670904,359485,156555.666666667
1012.65917916608,0.361672691853389,360943,156951.666666667
1016.44863645309,0.363077884731711,363031,157349.666666667
1020.23379382316,0.363685253905916,363948,157526.666666667
1024.01465127628,0.362758636304761,364282,158008
1027.79120881244,0.364062645344006,365769,158177.333333333
1032.81993010096,0.364734411208417,367653,158746.333333333
1036.58645449757,0.3658696052499,369308,159044.666666667
1040.34867897724,0.364783934016373,370049,159762.666666667
1044.10660353995,0.364961595135533,372221,160634.666666667
1047.86022818571,0.36517233251964,373567,161137.333333333
1051.60955291452,0.364945457724319,375404,162014.333333333
1055.35457772639,0.364844775726016,377310,162874.666666667
1059.0953026213,0.364258964120067,379148,163889
1062.83172759926,0.365311790675044,381319,164428.333333333
1066.56385266027,0.363681846304883,384184,166286.666666667
1071.53333064858,0.363394466167984,387908,168009.666666667
1075.25542257003,0.363467163977178,390607,169150.333333333
1078.97321457454,0.361861755835752,393646,171097.666666667
1082.6867066621,0.361627924376488,396671,172505.333333333
1086.3958988327,0.361529344281456,399870,173936
1090.10079108636,0.362636134369747,402904,174809.666666667
1093.80138342306,0.361155479900204,405606,176583
1097.49767584282,0.360604098448388,407871,177794.666666667
1101.18966834562,0.36170267592189,411381,178871.666666667
1104.87736093148,0.361407717031299,413721,180011.333333333
1108.56075360038,0.360293406506246,415453,181229.333333333
1113.46525506588,0.360946996308835,418471,182271.333333333
1117.13861459523,0.361339945149914,419674,182630
1120.80767420763,0.361837546468121,421639,183275
1124.47243390308,0.362230425548791,423459,183899.666666667
1128.13289368158,0.363066409019137,424228,183879.333333333
1131.78905354313,0.366007994495273,426045,183420.333333333
1135.44091348773,0.367591914755117,426478,182938.333333333
1139.08847351537,0.371550752282431,427601,181755.666666667
1142.73173362607,0.37510662112854,428210,180530.333333333
1146.37069381982,0.379167162562614,430333,179737
1151.21595198511,0.383333946672405,431572,178533.333333333
1154.84487903931,0.388624664272659,433166,177023
1158.46950617655,0.394352611441081,435811,175770.333333333
1162.08983339684,0.398200822550769,437511,174899.333333333
1165.70586070019,0.403030264113034,440470,174135
1169.31758808658,0.40598133557867,443261,174051.666666667
1172.92501555602,0.41067878966273,446330,173371.333333333
1176.52814310851,0.413470028593782,450024,173686.333333333
1180.12697074405,0.416542855468643,453937,173961.333333333
1183.72149846264,0.421351562611286,458109,173627
1188.50751332773,0.42529064449888,464689,174530.666666667
1192.09200790677,0.427270751919615,470015,175728
1195.67220256885,0.430897583390521,476072,176512.333333333
1199.24809731399,0.429747118097128,482088,179217
1202.81969214218,0.431382516446094,488677,180983.666666667
1206.38698705341,0.431753494902873,496329,183660.666666667
1209.9499820477,0.43199932825883,503908,186359.666666667
1213.50867712503,0.430934380478837,511433,189607
1217.06307228542,0.428392957380067,519363,193677
1220.61316752885,0.425954483675757,528308,198122
1224.15896285534,0.421111784273361,536018,203267.333333333
1228.88000119761,0.41644528939721,547278,209779.333333333
1232.41576338454,0.413918539295714,557050,214771
1235.94722565453,0.410943348362215,566065,219747
1239.47438800756,0.409277400001493,575725,224356
1242.99725044364,0.408281446547029,584235,228195
1246.51581296276,0.406011099204168,594054,233246.333333333
1250.03007556494,0.404633021144926,602549,237333.666666667
1253.54003825017,0.404602672462053,612257,241174.333333333
1257.04570101845,0.403628008203941,621056,245190
1260.54706386978,0.402964999899097,630966,249483
1265.20885891184,0.402937416886995,643606,254497
1268.70018862362,0.403293818590613,652183,257677
1272.18721841844,0.404255178525017,661425,260750.666666667
1275.66994829632,0.404101762027608,669244,263926.333333333
1279.14837825724,0.404625856446358,677027,266673.666666667
1282.62250830122,0.404627979148376,683423,269191.666666667
1286.09233842824,0.405183910303871,689796,271354.333333333
1289.55786863831,0.403736086868409,695579,274543
1293.01909893143,0.4032101270312,699163,276292
1296.4760293076,0.404195382867857,703715,277460.666666667
1301.07858104946,0.405229643645764,709736,279169
1304.52547828608,0.404909766530433,713970,281041.333333333
1307.96807560575,0.404959306375044,717163,282266
1311.40637300847,0.405934462173807,719966,282733.666666667
1314.84037049424,0.406411856308757,722284,283332.333333333
1318.27006806305,0.40724058047192,725225,283943.666666667
1321.69546571492,0.408343444170643,727780,284221.333333333
1325.11656344983,0.409419234977997,730006,284385.333333333
1328.5333612678,0.411042922624261,732700,284369.666666667
1331.94585916881,0.413082650912821,734345,283672.666666667
1336.48916761047,0.415371146332358,736319,282940.333333333
1339.89163237193,0.418936877369374,737558,281099
1343.28979721644,0.421322733960054,738142,279780.333333333
1346.683662144,0.424648109963499,738619,277825.666666667
1350.07322715461,0.4283441631522,738629,275475
1353.45849224827,0.432191723854677,737833,272751
1356.83945742498,0.435089133907453,736434,270423.666666667
1360.21612268474,0.43886978493132,736474,268094.333333333
1363.58848802755,0.442189221148312,735327,265638.666666667
1366.95655345341,0.445826169953302,735097,263341
1370.32031896232,0.448771501471193,734900,261491
1374.79865088116,0.454428035723355,735706,258390.333333333
1378.15238325052,0.458374057560467,734943,255787.666666667
1381.50181570292,0.462005523798503,732762,252905
1384.84694823838,0.466561929016114,731846,249952.666666667
1388.18778085688,0.471474721564641,730676,246746
1391.52431355844,0.476125638969271,728938,243537
1394.85654634304,0.481737708897196,727102,239804.666666667
1398.18447921069,0.486750545017551,724362,236159.333333333
1401.50811216139,0.492456474960883,722247,232396.333333333
1404.82744519514,0.498602770561419,719566,228280
1409.24653381378,0.5092456827748,716272,221734
1412.55583370798,0.516259047198152,714694,217701.333333333
1415.86083368523,0.524331985384191,713042,213198
1419.16153374553,0.530592055766714,711262,209622.333333333
1422.45793388888,0.537539577816272,710137,205969.333333333
1425.75003411527,0.544635255356783,709598,202477.666666667
1429.03783442472,0.549574517727124,708041,199748.666666667
1432.32133481722,0.555319166103084,708142,197152
1435.60053529276,0.559813595072556,706756,194740.333333333
1438.87543585136,0.563533883345191,707115,193177.333333333
1443.23528116978,0.567651897436612,706912,191299.333333333
1446.50014858883,0.569656181145398,705956,190161
1449.76071609092,0.571673152691584,705433,189139.666666667
1453.01698367606,0.57404404894609,705077,188015
1456.26895134425,0.575438968556065,703933,187108
1459.5166190955,0.577587203707663,702932,185920
1462.75998692979,0.578121483391227,700832,185136.666666667
1465.99905484713,0.579487749326881,698515,183945
1469.23382284752,0.580274224132579,696323,183036
1472.46429093096,0.58074222741047,693306,182046.666666667
1476.76489294917,0.582073342073754,689657,180534.333333333
1479.98532789306,0.582931827331852,686838,179441.333333333
1483.20146292,0.583946493482601,684443,178398.333333333
1486.41329802998,0.583993266103495,680351,177312.666666667
1489.62083322302,0.585764985330792,676729,175650.666666667
1492.8240684991,0.586895873111888,673732,174418
1496.02300385824,0.58721161484412,669890,173297.333333333
1499.21763930042,0.587467944125567,665764,172128.333333333
1502.40797482566,0.58779010975861,662328,171113
1505.59401043394,0.587416523888681,658060,170156.666666667
1508.77574612527,0.587030452572742,653668,169171.333333333
1513.01137162068,0.587491328125133,647807,167476.666666667
1516.18307417246,0.58719961331217,642776,166287.666666667
1519.35047680729,0.585358428075113,636853,165455.333333333
1522.51357952517,0.584527233850191,631257,164315.666666667
1525.6723823261,0.584606864967129,626083,162939
1528.82688521008,0.582651396691674,619667,161997
1531.9770881771,0.582176744689061,614140,160727.666666667
1535.12299122718,0.580390935937243,607382,159614
1538.26459436031,0.581489605809379,601756,157736
1541.40189757648,0.57883239402459,594204,156712.333333333
1545.57827977168,0.578796520124075,584861,154261
1548.70554984831,0.576542314335701,578079,153265.666666667
1551.82852000798,0.576973999264142,571488,151367.666666667
1554.94719025071,0.574288482089039,563266,150115.333333333
1558.06156057648,0.573865619501804,555713,148246.666666667
1561.1716309853,0.573017618712813,547023,146213.666666667
1564.27740147717,0.573993872865362,540016,144016.666666667
1567.37887205209,0.573311414046988,531678,142016
1570.47604271006,0.574215018304568,523035,139417
1573.56891345108,0.574104780506132,514017,137048
1577.68605234607,0.573308735512372,502079,134110.666666667
1580.76888994754,0.572994307896756,494135,132084.333333333
1583.84742763206,0.572029343340741,484769,129869
1586.92166539963,0.570807473672752,475460,127734
1589.99160325024,0.569730337146338,466116,125534.666666667
1593.05724118391,0.569346539515644,456969,123180
1596.11857920063,0.568480340447629,447506,120870
1599.17561730039,0.568345146479194,439245,118675.666666667
1602.2283554832,0.567299519961996,429113,116217.666666667
1605.27679374907,0.564978765112869,419968,114350.333333333
1609.33468934385,0.563305088996777,407521,111389.666666667
1612.37309447016,0.562063801419973,398489,109232.666666667
1615.40719967952,0.563605931721466,389802,106472.666666667
1618.43700497194,0.560251925905366,380551,104751.666666667
1621.4625103474,0.560919109588824,371710,102161
1624.48371580591,0.559489572523672,362463,99948
1627.50062134746,0.55964314059674,353431,97423
1630.51322697207,0.55944469520273,344400,94977
1633.52153267973,0.557057830206462,335271,92969
1636.52553847044,0.55757773383651,325918,90267.3333333333
1639.52524434419,0.557235164031142,316982,87861.6666666667
1643.51816341617,0.556682440426242,305331,84740
1646.50783615037,0.554969588753203,295134,82233.6666666667
1649.49320896763,0.554535558471082,285124,79524
1652.47428186793,0.551519959938003,274811,77181.6666666667
1655.45105485129,0.551053377308158,264180,74275.6666666667
1658.42352791769,0.54524686925891,250984,71515.3333333333
1661.39170106714,0.538378671649976,235469,68164
1664.35557429964,0.530477459828185,216668,63873
1667.31514761519,0.521900153982788,196183,58987.6666666667
1670.27042101379,0.507693310047347,174581,54238
1674.20409678556,0.491478263908535,143952,46423.6666666667
1677.14933704461,0.48190464458931,123337,40662
1680.09027738671,0.480212744634362,105172,34808.6666666667
1683.02691781185,0.477619293305404,88996,29631.3333333333
1685.95925832005,0.49008623188403,75582,24453
1688.8872989113,0.484611523209498,63863,20923.6666666667
1691.81103958559,0.50367182281143,55494,17401
1694.73048034294,0.513865996795389,47752,14626
1697.64562118333,0.541011508352566,41556,11957
1700.55646210678,0.521240477724012,35632,10730
