***Scan Config Information***,,,,,,,***Reference Scan Information***,,,,,,,,
Scan Config Name:,Column 1,,,,,,Scan Config Name:,Local New Reference,,,,,,,
Scan Config Type:,Slew,Num Section:,1,,,,Scan Config Type:,Slew,Num Section:,1,,,,,
Section Config Type:,Column,,,,,,Section Config Type:,Column,,,,,,,
Start Wavelength (nm):,900,,,,,,Start Wavelength (nm):,900,,,,,,,
End Wavelength (nm):,1700,,,,,,End Wavelength (nm):,1700,,,,,,,
Pattern Width (nm):,7.03,,,,,,Pattern Width (nm):,7.03,,,,,,,
Exposure (ms):,0.635,,,,,,Exposure (ms):,0.635,,,,,,,
Digital Resolution:,228,,,,,,Digital Resolution:,228,,,,,,,
Num Repeats:,3,,,,,,Num Repeats:,3,,,,,,,
PGA Gain:,64,(FixedPGA),,,,,PGA Gain:,64,(AutoPGA),,,,,,
System Temp (C):,34.52,,,,,,System Temp (C):,29.46,,,,,,,
Humidity (%):,39.33,,,,,,Humidity (%):,52.02,,,,,,,
Lamp Indicator:,1147,,,,,,Lamp Indicator:,1099,,,,,,,
Data Date-Time:,2025/08/09T14:10:53,,,,,,Data Date-Time:,2025/08/09T13:22:04,,,,,,,
Total Measurement Time in sec:,2.4181522,,,,,,,,,,,,,,
,,,,,,,,,,,,,,,
***General Information***,,,,,,,***Calibration Coefficients***,,,,,,,,
Model Name:,NIR-R210,,,,,,Shift Vector Coefficients:,-5.72686255341989,0.0566949379947153,-0.000136804211203387,,,,,
Serial Number:,734R012,(N/A),,,,,Pixel to Wavelength Coefficients:,1812.09528251196,-0.912948081806683,-0.000238884275033469,,,,,
GUI Version:,3.9.8,Revision:,830,,,,Versions (Cal/Ref/Cfg):,1,3,1,,,,,
TIVA Version:,2.4.10,,,,,,***Lamp Usage ***,,,,,,,,
DLPC Version:,2.0.0,,,,,,Total Time(hh:mm:ss):,N/A,,,,,,,
UUID:,D6:65:30:51:9A:41:0D:28,,,,,,***Device/Error/Activation Status***,,,,,,,,
Main Board Version:,D,,,,,,Device Status:,0x00000001,Activation Status:,Not activated,,,,,
Detector Board Version:,B,,,,,,Error status:,0x00000000,Error Code:,0x00000000000000000000000000000000,,,,,
,,,,,,,,,Error Details:,Not found,,,,,
***Scan Data***,,,,,,,,,,,,,,,
Num Scan:,3

Wavelength (nm),Absorbance (AU),Reference Signal (unitless),Sample Signal (unitless)
900.894453969064,0.357375413846969,61165,26861.3333333333
904.808608847648,0.351246918988557,71524,31857
910.020793259393,0.353446174588728,81743,36224.6666666667
913.924914998427,0.352536441910888,88693,39387
917.82473682051,0.352724497364674,96017,42621
921.720258725642,0.35403002850782,105300,46601.3333333333
925.611480713823,0.353062627526661,115956,51431.6666666667
929.498402785054,0.355877547702121,129721,57165.3333333333
933.381024939334,0.357990791048597,145333,63734.3333333333
937.259347176664,0.354458311705777,161102,71226.6666666667
941.133369497043,0.353226048106325,176880,78424.6666666667
945.003091900472,0.348728757727739,190875,85510.6666666667
948.86851438695,0.347747255510494,204873,91989.3333333333
954.015722275886,0.345758641733342,222646,100428.333333333
957.871111622812,0.34616918188432,236435,106547.333333333
961.722201052788,0.346341761799869,250209,112709.666666667
965.568990565813,0.346058700560404,265026,119462
969.411480161888,0.345356010228087,277918,125476
973.249669841012,0.346479378820536,291257,131158.666666667
977.083559603186,0.348157681598862,304760,136710
980.913149448408,0.347610536025044,316097,141974.333333333
984.738439376681,0.347793261932351,326323,146505.666666667
988.559429388003,0.347377459160095,334592,150362
993.64739397673,0.347718155189646,344807,154831
997.458350848501,0.348112225750115,349688,156880.333333333
1001.26500780332,0.34626692084285,353644,159330.666666667
1005.06736484119,0.347076387324287,357116,160595.333333333
1008.86542196211,0.346197036504906,359485,161988.333333333
1012.65917916608,0.345298980822629,360943,162982
1016.44863645309,0.34672975744377,363031,163385.666666667
1020.23379382316,0.346404742333668,363948,163921
1024.01465127628,0.344577142694899,364282,164763.333333333
1027.79120881244,0.344366038081369,365769,165516.333333333
1032.81993010096,0.344551958459662,367653,166297.666666667
1036.58645449757,0.344206992377366,369308,167179
1040.34867897724,0.341475513005872,370049,168571.333333333
1044.10660353995,0.342190090150344,372221,169282
1047.86022818571,0.34214956484707,373567,169910
1051.60955291452,0.34034620820701,375404,171456
1055.35457772639,0.342227433585548,377310,171581.666666667
1059.0953026213,0.341145248212467,379148,172847.666666667
1062.83172759926,0.340869005695229,381319,173948
1066.56385266027,0.34089116001017,384184,175246
1071.53333064858,0.340471758178278,387908,177115.666666667
1075.25542257003,0.340144787010452,390607,178482.333333333
1078.97321457454,0.340096406746879,393646,179891
1082.6867066621,0.339403898306316,396671,181562.666666667
1086.3958988327,0.339321410645397,399870,183061.666666667
1090.10079108636,0.33910008043184,402904,184544.666666667
1093.80138342306,0.338435015293433,405606,186067
1097.49767584282,0.338043021938091,407871,187275
1101.18966834562,0.339216353287322,411381,188377
1104.87736093148,0.338679919169623,413721,189682.666666667
1108.56075360038,0.338059629523379,415453,190749
1113.46525506588,0.339780163099986,418471,191375
1117.13861459523,0.338862021912273,419674,192331.333333333
1120.80767420763,0.339504244800405,421639,192946.333333333
1124.47243390308,0.341050085595689,423459,193090.666666667
1128.13289368158,0.342571146892997,424228,192765
1131.78905354313,0.344742069594627,426045,192625.333333333
1135.44091348773,0.347045010962789,426478,191801.333333333
1139.08847351537,0.350537738721592,427601,190766
1142.73173362607,0.354380792343725,428210,189354.666666667
1146.37069381982,0.359899443773803,430333,187890.666666667
1151.21595198511,0.365151337560748,431572,186166.666666667
1154.84487903931,0.368847696458861,433166,185270.666666667
1158.46950617655,0.375212673615812,435811,183690
1162.08983339684,0.378162293655464,437511,183158.333333333
1165.70586070019,0.383692254285721,440470,182064
1169.31758808658,0.388780242183089,443261,181083.666666667
1172.92501555602,0.391973504977022,446330,181001.666666667
1176.52814310851,0.396871569003674,450024,180453
1180.12697074405,0.400515168826822,453937,180501.333333333
1183.72149846264,0.404579046869626,458109,180463.666666667
1188.50751332773,0.408040170648448,464689,181602.666666667
1192.09200790677,0.411016253581425,470015,182429.666666667
1195.67220256885,0.412234501689068,476072,184263
1199.24809731399,0.411759524143265,482088,186795.666666667
1202.81969214218,0.412799137527699,488677,188896
1206.38698705341,0.413204179396444,496329,191675
1209.9499820477,0.411718692409803,503908,195268.666666667
1213.50867712503,0.409979320734292,511433,198980
1217.06307228542,0.407863735256794,519363,203052
1220.61316752885,0.406516300598996,528308,207191
1224.15896285534,0.404331263586596,536018,211275
1228.88000119761,0.401370831147237,547278,217188.666666667
1232.41576338454,0.399176836564523,557050,222186.333333333
1235.94722565453,0.397609591898289,566065,226598.333333333
1239.47438800756,0.396180926415146,575725,231224.666666667
1242.99725044364,0.394298626059396,584235,235661.666666667
1246.51581296276,0.393564018057458,594054,240028
1250.03007556494,0.390900742526131,602549,244958
1253.54003825017,0.390684997164068,612257,249028.333333333
1257.04570101845,0.389728812917775,621056,253164
1260.54706386978,0.389144403426561,630966,257550
1265.20885891184,0.389060280010009,643606,262760.333333333
1268.70018862362,0.389429064814859,652183,266036
1272.18721841844,0.38941988134305,661425,269811.666666667
1275.66994829632,0.388450932911688,669244,273611
1279.14837825724,0.388191029041615,677027,276958.666666667
1282.62250830122,0.387754968066066,683423,279856
1286.09233842824,0.387923650816219,689796,282356
1289.55786863831,0.387049764383747,695579,285296.666666667
1293.01909893143,0.386179830717809,699163,287341.666666667
1296.4760293076,0.386379763817855,703715,289079.333333333
1301.07858104946,0.386776725807544,709736,291286.333333333
1304.52547828608,0.387495696380211,713970,292539.333333333
1307.96807560575,0.388259418948929,717163,293331.333333333
1311.40637300847,0.389022763961254,719966,293960.666666667
1314.84037049424,0.389946755197578,722284,294280.333333333
1318.27006806305,0.391628891314207,725225,294336.333333333
1321.69546571492,0.393521336025405,727780,294089
1325.11656344983,0.39538354574605,730006,293726.333333333
1328.5333612678,0.397945936029013,732700,293076
1331.94585916881,0.401425001934862,734345,291390.333333333
1336.48916761047,0.405979860692388,736319,289125.333333333
1339.89163237193,0.410692774275964,737558,286486
1343.28979721644,0.415202006287631,738142,283751.333333333
1346.683662144,0.419777011388183,738619,280959.333333333
1350.07322715461,0.425175887812253,738629,277492
1353.45849224827,0.430331161448523,737833,273922
1356.83945742498,0.435201031461432,736434,270354
1360.21612268474,0.440532312980574,736474,267070
1363.58848802755,0.444505510503855,735327,264225.666666667
1366.95655345341,0.448935517779446,735097,261462.333333333
1370.32031896232,0.453565580248602,734900,258620.333333333
1374.79865088116,0.458774896315599,735706,255817
1378.15238325052,0.462765372284419,734943,253214.333333333
1381.50181570292,0.467300388694819,732762,249840.333333333
1384.84694823838,0.472115609777053,731846,246776.666666667
1388.18778085688,0.47909489204318,730676,242454.333333333
1391.52431355844,0.486582243330104,728938,237743.333333333
1394.85654634304,0.496996195830761,727102,231525.666666667
1398.18447921069,0.506505566008687,724362,225657.666666667
1401.50811216139,0.518617918856357,722247,218810.333333333
1404.82744519514,0.53142295139064,719566,211664.333333333
1409.24653381378,0.549872110767395,716272,201932.333333333
1412.55583370798,0.564794336954302,714694,194682
1415.86083368523,0.580308447122059,713042,187416
1419.16153374553,0.595113115009922,711262,180682.666666667
1422.45793388888,0.609708511544855,710137,174435
1425.75003411527,0.622903020121926,709598,169086.666666667
1429.03783442472,0.633573171275294,708041,164621
1432.32133481722,0.644978267879882,708142,160377
1435.60053529276,0.654361284564711,706756,156642
1438.87543585136,0.65931808950779,707115,154943
1443.23528116978,0.668183235238917,706912,151768.666666667
1446.50014858883,0.671801316350783,705956,150306
1449.76071609092,0.674992692663795,705433,149095
1453.01698367606,0.678797249004013,705077,147720
1456.26895134425,0.681526734248145,703933,146556.333333333
1459.5166190955,0.684105046643485,702932,145481.666666667
1462.75998692979,0.684496586503832,700832,144916.333333333
1465.99905484713,0.686759266783534,698515,143686.666666667
1469.23382284752,0.687679244107637,696323,142932.666666667
1472.46429093096,0.689926118183525,693306,141579
1476.76489294917,0.689696470554657,689657,140908.333333333
1479.98532789306,0.689278977184775,686838,140467.333333333
1483.20146292,0.690816006584596,684443,139483
1486.41329802998,0.688718522596291,680351,139320.333333333
1489.62083322302,0.688846919070649,676729,138537.666666667
1492.8240684991,0.689076204297838,673732,137851.333333333
1496.02300385824,0.68756289709814,669890,137543.666666667
1499.21763930042,0.684453656292066,665764,137678.666666667
1502.40797482566,0.682306364853256,662328,137647
1505.59401043394,0.68065189553647,658060,137282
1508.77574612527,0.679181187834165,653668,136828.333333333
1513.01137162068,0.674841319483704,647807,136963.333333333
1516.18307417246,0.674287692907819,642776,136073
1519.35047680729,0.671110647572166,636853,135809
1522.51357952517,0.668673084246388,631257,135373.333333333
1525.6723823261,0.666461168140621,626083,134949.333333333
1528.82688521008,0.665047088345803,619667,134002
1531.9770881771,0.663470902783854,614140,133289.666666667
1535.12299122718,0.661077816630813,607382,132551.333333333
1538.26459436031,0.661076326798271,601756,131324
1541.40189757648,0.65861468554851,594204,130413
1545.57827977168,0.656437142166865,584861,129007.666666667
1548.70554984831,0.65674959220672,578079,127420
1551.82852000798,0.653841055751585,571488,126813.666666667
1554.94719025071,0.652212869349506,563266,125458.666666667
1558.06156057648,0.651871563593065,555713,123873.666666667
1561.1716309853,0.650135474270393,547023,122425
1564.27740147717,0.650369653973593,540016,120791.666666667
1567.37887205209,0.649871869102151,531678,119063
1570.47604271006,0.648899648958738,523035,117390
1573.56891345108,0.647482747716369,514017,115743
1577.68605234607,0.646649488166993,502079,113272
1580.76888994754,0.645894840530262,494135,111673.666666667
1583.84742763206,0.643446524825661,484769,110176.333333333
1586.92166539963,0.640927061091653,475460,108689.333333333
1589.99160325024,0.639788586795973,466116,106833
1593.05724118391,0.637118928952522,456969,105382.333333333
1596.11857920063,0.634083008319648,447506,103924
1599.17561730039,0.63225562831121,439245,102435.666666667
1602.2283554832,0.628752248176319,429113,100883.333333333
1605.27679374907,0.622796584816105,419968,100096.666666667
1609.33468934385,0.619848145432271,407521,97791.6666666667
1612.37309447016,0.617093816983863,398489,96232.6666666667
1615.40719967952,0.614703562047566,389802,94654.3333333333
1618.43700497194,0.610933275721321,380551,93213.6666666667
1621.4625103474,0.610393576361558,371710,91161.3333333333
1624.48371580591,0.6073387557947,362463,89521
1627.50062134746,0.603695316602097,353431,88025.6666666667
1630.51322697207,0.599346370045076,344400,86639.6666666667
1633.52153267973,0.598919776377801,335271,84426
1636.52553847044,0.595191668583337,325918,82778.3333333333
1639.52524434419,0.594464335424319,316982,80643.6666666667
1643.51816341617,0.588948869042922,305331,78672.3333333333
1646.50783615037,0.587001685077207,295134,76386.6666666667
1649.49320896763,0.585067115759384,285124,74125.3333333333
1652.47428186793,0.582565030829774,274811,71857
1655.45105485129,0.579263657666918,264180,69604.3333333333
1658.42352791769,0.57394735302596,250984,66942
1661.39170106714,0.566097718073008,235469,63949.3333333333
1664.35557429964,0.555014365871234,216668,60364.3333333333
1667.31514761519,0.545003610669159,196183,55931.6666666667
1670.27042101379,0.529644762150317,174581,51564.6666666667
1674.20409678556,0.509259526116524,143952,44561.3333333333
1677.14933704461,0.498191553469544,123337,39165.3333333333
1680.09027738671,0.492328629943289,105172,33851
1683.02691781185,0.492205439942436,88996,28652.6666666667
1685.95925832005,0.494035093575533,75582,24231.6666666667
1688.8872989113,0.49665644827583,63863,20351.3333333333
1691.81103958559,0.50264144797135,55494,17442.3333333333
1694.73048034294,0.505844162251172,47752,14898.6666666667
1697.64562118333,0.521758469537398,41556,12499
1700.55646210678,0.517546047200851,35632,10821.6666666667
