***Scan Config Information***,,,,,,,***Reference Scan Information***,,,,,,,,
Scan Config Name:,Column 1,,,,,,Scan Config Name:,Local New Reference,,,,,,,
Scan Config Type:,Slew,Num Section:,1,,,,Scan Config Type:,Slew,Num Section:,1,,,,,
Section Config Type:,Column,,,,,,Section Config Type:,Column,,,,,,,
Start Wavelength (nm):,900,,,,,,Start Wavelength (nm):,900,,,,,,,
End Wavelength (nm):,1700,,,,,,End Wavelength (nm):,1700,,,,,,,
Pattern Width (nm):,7.03,,,,,,Pattern Width (nm):,7.03,,,,,,,
Exposure (ms):,0.635,,,,,,Exposure (ms):,0.635,,,,,,,
Digital Resolution:,228,,,,,,Digital Resolution:,228,,,,,,,
Num Repeats:,3,,,,,,Num Repeats:,3,,,,,,,
PGA Gain:,64,(FixedPGA),,,,,PGA Gain:,64,(AutoPGA),,,,,,
System Temp (C):,34.62,,,,,,System Temp (C):,29.46,,,,,,,
Humidity (%):,38.69,,,,,,Humidity (%):,52.02,,,,,,,
Lamp Indicator:,1146,,,,,,Lamp Indicator:,1099,,,,,,,
Data Date-Time:,2025/08/09T14:14:10,,,,,,Data Date-Time:,2025/08/09T13:22:04,,,,,,,
Total Measurement Time in sec:,2.421072,,,,,,,,,,,,,,
,,,,,,,,,,,,,,,
***General Information***,,,,,,,***Calibration Coefficients***,,,,,,,,
Model Name:,NIR-R210,,,,,,Shift Vector Coefficients:,-5.72686255341989,0.0566949379947153,-0.000136804211203387,,,,,
Serial Number:,734R012,(N/A),,,,,Pixel to Wavelength Coefficients:,1812.09528251196,-0.912948081806683,-0.000238884275033469,,,,,
GUI Version:,3.9.8,Revision:,830,,,,Versions (Cal/Ref/Cfg):,1,3,1,,,,,
TIVA Version:,2.4.10,,,,,,***Lamp Usage ***,,,,,,,,
DLPC Version:,2.0.0,,,,,,Total Time(hh:mm:ss):,N/A,,,,,,,
UUID:,D6:65:30:51:9A:41:0D:28,,,,,,***Device/Error/Activation Status***,,,,,,,,
Main Board Version:,D,,,,,,Device Status:,0x00000001,Activation Status:,Not activated,,,,,
Detector Board Version:,B,,,,,,Error status:,0x00000000,Error Code:,0x00000000000000000000000000000000,,,,,
,,,,,,,,,Error Details:,Not found,,,,,
***Scan Data***,,,,,,,,,,,,,,,
Num Scan:,3

Wavelength (nm),Absorbance (AU),Reference Signal (unitless),Sample Signal (unitless)
900.894453969064,0.329418778636479,61165,28647.3333333333
904.808608847648,0.327268875568287,71524,33665.3333333333
910.020793259393,0.324063069179697,81743,38760.3333333333
913.924914998427,0.331746549988379,88693,41318.3333333333
917.82473682051,0.33270827123351,96017,44631.3333333333
921.720258725642,0.335205694071614,105300,48665.6666666667
925.611480713823,0.334335115029677,115956,53698
929.498402785054,0.338546851986797,129721,59492.6666666667
933.381024939334,0.339566539878266,145333,66496.3333333333
937.259347176664,0.337663851277475,161102,74035
941.133369497043,0.335601993748146,176880,81672.6666666667
945.003091900472,0.333511442193811,190875,88560
948.86851438695,0.330978380534453,204873,95610.6666666667
954.015722275886,0.331013282874338,222646,103896.666666667
957.871111622812,0.333378471727912,236435,109732
961.722201052788,0.334162038743712,250209,115915.333333333
965.568990565813,0.336817125404699,265026,122031.333333333
969.411480161888,0.337823281818732,277918,127671.333333333
973.249669841012,0.338614052350476,291257,133555.666666667
977.083559603186,0.34226158644374,304760,138578.666666667
980.913149448408,0.342132970286172,316097,143776.333333333
984.738439376681,0.343923301079662,326323,147817
988.559429388003,0.345454247535708,334592,151029.333333333
993.64739397673,0.346008629765387,344807,155441.666666667
997.458350848501,0.346910594565924,349688,157315
1001.26500780332,0.346335978494201,353644,159305.333333333
1005.06736484119,0.34577397859184,357116,161077.666666667
1008.86542196211,0.344917394484824,359485,162466.333333333
1012.65917916608,0.34460494305903,360943,163242.666666667
1016.44863645309,0.345161658175658,363031,163976.666666667
1020.23379382316,0.34448551522094,363948,164647
1024.01465127628,0.343145592206279,364282,165307.333333333
1027.79120881244,0.342909607373602,365769,166072.333333333
1032.81993010096,0.340517630990207,367653,167849.666666667
1036.58645449757,0.341851144503108,369308,168088.333333333
1040.34867897724,0.338450304793798,370049,169749.666666667
1044.10660353995,0.338414725421688,372221,170760
1047.86022818571,0.338496224011642,373567,171345.333333333
1051.60955291452,0.337366692452457,375404,172636.333333333
1055.35457772639,0.337477275256896,377310,173468.666666667
1059.0953026213,0.335176351021063,379148,175239.666666667
1062.83172759926,0.335358134556594,381319,176169.333333333
1066.56385266027,0.333872103198862,384184,178101.333333333
1071.53333064858,0.333652512352482,387908,179918.666666667
1075.25542257003,0.333499547334052,390607,181234.333333333
1078.97321457454,0.332179583222269,393646,183200.333333333
1082.6867066621,0.331075653284006,396671,185078
1086.3958988327,0.331543594229223,399870,186369.666666667
1090.10079108636,0.331872297278971,402904,187641.666666667
1093.80138342306,0.330599827537575,405606,189454.333333333
1097.49767584282,0.330153156965446,407871,190708.333333333
1101.18966834562,0.330643772506519,411381,192132.333333333
1104.87736093148,0.330642751367011,413721,193225.666666667
1108.56075360038,0.329819681421464,415453,194402.666666667
1113.46525506588,0.329976168427208,418471,195744.333333333
1117.13861459523,0.329558350243068,419674,196496
1120.80767420763,0.330041939233268,421639,197196.333333333
1124.47243390308,0.332193789358761,423459,197068.666666667
1128.13289368158,0.333451408675141,424228,196855.666666667
1131.78905354313,0.336092918146072,426045,196500
1135.44091348773,0.338094296428906,426478,195795.333333333
1139.08847351537,0.342752961499772,427601,194216.333333333
1142.73173362607,0.347077947646202,428210,192565.666666667
1146.37069381982,0.353366667684068,430333,190738.333333333
1151.21595198511,0.361546570640546,431572,187718.333333333
1154.84487903931,0.365741945501699,433166,186600.333333333
1158.46950617655,0.373039044662825,435811,184611.666666667
1162.08983339684,0.377547023060639,437511,183418
1165.70586070019,0.383784499339298,440470,182025.333333333
1169.31758808658,0.389234559458756,443261,180894.333333333
1172.92501555602,0.394954966291723,446330,179763.333333333
1176.52814310851,0.399268818784906,450024,179459.666666667
1180.12697074405,0.405366283866676,453937,178496.333333333
1183.72149846264,0.41095077070042,458109,177835.333333333
1188.50751332773,0.415581756989193,464689,178476.333333333
1192.09200790677,0.420060080770217,470015,178670
1195.67220256885,0.421199443237883,476072,180498.333333333
1199.24809731399,0.422729731925946,482088,182136.333333333
1202.81969214218,0.422327765849913,488677,184796.666666667
1206.38698705341,0.42255225090636,496329,187593.333333333
1209.9499820477,0.421549874830832,503908,190898
1213.50867712503,0.419574501871622,511433,194632
1217.06307228542,0.417150030510212,519363,198756.333333333
1220.61316752885,0.414026942307984,528308,203638.666666667
1224.15896285534,0.410028880721471,536018,208521.333333333
1228.88000119761,0.405803197940255,547278,214983.333333333
1232.41576338454,0.402884938453996,557050,220297.333333333
1235.94722565453,0.400423929487795,566065,225134.666666667
1239.47438800756,0.398100336282027,575725,230205
1242.99725044364,0.396567590667369,584235,234433.666666667
1246.51581296276,0.394545189747522,594054,239486.333333333
1250.03007556494,0.393498160635199,602549,243497.333333333
1253.54003825017,0.392410285584158,612257,248041
1257.04570101845,0.391097623121425,621056,252367.333333333
1260.54706386978,0.390604339308177,630966,256685.666666667
1265.20885891184,0.389729083317287,643606,262356
1268.70018862362,0.38987550131905,652183,265762.666666667
1272.18721841844,0.389350136707141,661425,269855
1275.66994829632,0.388923667422352,669244,273313.333333333
1279.14837825724,0.388534575304157,677027,276739.666666667
1282.62250830122,0.387265893576488,683423,280171.333333333
1286.09233842824,0.387305770490571,689796,282758
1289.55786863831,0.386602958539152,695579,285590.333333333
1293.01909893143,0.385515313741209,699163,287781.666666667
1296.4760293076,0.386148465575057,703715,289233.333333333
1301.07858104946,0.386202591256745,709736,291671.666666667
1304.52547828608,0.387160808058504,713970,292765
1307.96807560575,0.387456710960559,717163,293874
1311.40637300847,0.388406145450225,719966,294378.333333333
1314.84037049424,0.39025136562261,722284,294074
1318.27006806305,0.3924121061573,725225,293806
1321.69546571492,0.395236759239546,727780,292929.666666667
1325.11656344983,0.397989191432312,730006,291969.333333333
1328.5333612678,0.401069519646765,732700,290975.666666667
1331.94585916881,0.405202712219148,734345,288866.666666667
1336.48916761047,0.411740387773997,736319,285315.666666667
1339.89163237193,0.417580952124024,737558,281978
1343.28979721644,0.423041907421323,738142,278675
1346.683662144,0.429431668057776,738619,274782.333333333
1350.07322715461,0.435734930415228,738629,270826.666666667
1353.45849224827,0.442446135337867,737833,266386.333333333
1356.83945742498,0.448505560585067,736434,262197.333333333
1360.21612268474,0.455585971059053,736474,257971.333333333
1363.58848802755,0.460729022943847,735327,254537.333333333
1366.95655345341,0.466400516250274,735097,251156.333333333
1370.32031896232,0.471847203523811,734900,247959.666666667
1374.79865088116,0.478987687093989,735706,244183.666666667
1378.15238325052,0.484538263289939,734943,240832.666666667
1381.50181570292,0.490777525128353,732762,236693
1384.84694823838,0.497930750961396,731846,232535.333333333
1388.18778085688,0.506616194482474,730676,227566.666666667
1391.52431355844,0.516321966445102,728938,222008
1394.85654634304,0.528734909747887,727102,215209
1398.18447921069,0.542428563382311,724362,207743.333333333
1401.50811216139,0.55741550777325,722247,200110.666666667
1404.82744519514,0.574228069803222,719566,191797.333333333
1409.24653381378,0.596741657745041,716272,181274.333333333
1412.55583370798,0.61455290376518,714694,173607
1415.86083368523,0.632213287003805,713042,166303.666666667
1419.16153374553,0.650235698434091,711262,159145.333333333
1422.45793388888,0.666043690151085,710137,153214
1425.75003411527,0.682541417356302,709598,147391
1429.03783442472,0.694493640393254,708041,143075.333333333
1432.32133481722,0.704574869486606,708142,139812.333333333
1435.60053529276,0.71490324435126,706756,136259.333333333
1438.87543585136,0.723266618017724,707115,133728.333333333
1443.23528116978,0.730811855789171,706912,131387.333333333
1446.50014858883,0.735014718114123,705956,129946
1449.76071609092,0.738373596154303,705433,128849.333333333
1453.01698367606,0.741683039848896,705077,127806.666666667
1456.26895134425,0.743642121589612,703933,127025
1459.5166190955,0.745176548216054,702932,126397
1462.75998692979,0.748080132743129,700832,125179.666666667
1465.99905484713,0.748237313033471,698515,124720.666666667
1469.23382284752,0.749425247993357,696323,123989.666666667
1472.46429093096,0.750488191479561,693306,123150.666666667
1476.76489294917,0.751277718589826,689657,122280
1479.98532789306,0.751316386576559,686838,121769.333333333
1483.20146292,0.750485863541928,684443,121577
1486.41329802998,0.749099040283226,680351,121236.666666667
1489.62083322302,0.747400964494921,676729,121063.666666667
1492.8240684991,0.747810192022803,673732,120414
1496.02300385824,0.746242370342285,669890,120160.333333333
1499.21763930042,0.742984890845935,665764,120319.333333333
1502.40797482566,0.741854473271223,662328,120010.333333333
1505.59401043394,0.740314075027122,658060,119660.666666667
1508.77574612527,0.73791421790908,653668,119520.666666667
1513.01137162068,0.736263781931274,647807,118900
1516.18307417246,0.735437277190057,642776,118201.333333333
1519.35047680729,0.730666711586078,636853,118405.666666667
1522.51357952517,0.728392907119265,631257,117981.333333333
1525.6723823261,0.727475848950506,626083,117261.666666667
1528.82688521008,0.725931864009917,619667,116473.333333333
1531.9770881771,0.724077792465038,614140,115928.333333333
1535.12299122718,0.722438163687424,607382,115086.333333333
1538.26459436031,0.72213732233734,601756,114099.333333333
1541.40189757648,0.721694495629996,594204,112782.333333333
1545.57827977168,0.717927712887874,584861,111976
1548.70554984831,0.71855024628162,578079,110519
1551.82852000798,0.717320738808888,571488,109568.666666667
1554.94719025071,0.71558944689271,563266,108423.666666667
1558.06156057648,0.717244118102677,555713,106563
1561.1716309853,0.715615711452404,547023,105290.666666667
1564.27740147717,0.715415049410779,540016,103990
1567.37887205209,0.716578996338895,531678,102110.333333333
1570.47604271006,0.715305813436122,523035,100745.333333333
1573.56891345108,0.715009018106797,514017,99076
1577.68605234607,0.712177430496937,502079,97408
1580.76888994754,0.714766387391026,494135,95297
1583.84742763206,0.712502479872014,484769,93979.3333333333
1586.92166539963,0.711659843353618,475460,92353.6666666667
1589.99160325024,0.708503934574637,466116,91199
1593.05724118391,0.707081385396311,456969,89702.6666666667
1596.11857920063,0.705901834311281,447506,88084
1599.17561730039,0.703428915687189,439245,86951.6666666667
1602.2283554832,0.699989685128211,429113,85621.3333333333
1605.27679374907,0.697660036923146,419968,84247.3333333333
1609.33468934385,0.694061181059156,407521,82430.6666666667
1612.37309447016,0.691668676714387,398489,81049
1615.40719967952,0.69117126776071,389802,79373
1618.43700497194,0.688232899075323,380551,78015.3333333333
1621.4625103474,0.68485244980819,371710,76798.3333333333
1624.48371580591,0.683556281928381,362463,75111.6666666667
1627.50062134746,0.680703603550555,353431,73722.6666666667
1630.51322697207,0.676467631011904,344400,72543
1633.52153267973,0.676031864534349,335271,70691
1636.52553847044,0.673596780454127,325918,69105.3333333333
1639.52524434419,0.669585040093059,316982,67834.3333333333
1643.51816341617,0.667077750853495,305331,65719.3333333333
1646.50783615037,0.663043792366259,295134,64117.3333333333
1649.49320896763,0.664209304089149,285124,61776.6666666667
1652.47428186793,0.660294550435271,274811,60081.3333333333
1655.45105485129,0.656499638896955,264180,58264
1658.42352791769,0.650095224366962,250984,56176
1661.39170106714,0.641493329376361,235469,53757.6666666667
1664.35557429964,0.632532063626296,216668,50496.6666666667
1667.31514761519,0.618943325265433,196183,47175.6666666667
1670.27042101379,0.612312207826575,174581,42627
1674.20409678556,0.582768128359506,143952,37622.6666666667
1677.14933704461,0.574787223086625,123337,32832.6666666667
1680.09027738671,0.573204116508441,105172,28099.3333333333
1683.02691781185,0.56675317587567,88996,24133.3333333333
1685.95925832005,0.566579786565058,75582,20504
1688.8872989113,0.577354045412522,63863,16900.3333333333
1691.81103958559,0.588889746007699,55494,14300.6666666667
1694.73048034294,0.588909947844797,47752,12305
1697.64562118333,0.598396793686278,41556,10477
1700.55646210678,0.596585516869783,35632,9021
