***Scan Config Information***,,,,,,,***Reference Scan Information***,,,,,,,,
Scan Config Name:,Column 1,,,,,,Scan Config Name:,Local New Reference,,,,,,,
Scan Config Type:,Slew,Num Section:,1,,,,Scan Config Type:,Slew,Num Section:,1,,,,,
Section Config Type:,Column,,,,,,Section Config Type:,Column,,,,,,,
Start Wavelength (nm):,900,,,,,,Start Wavelength (nm):,900,,,,,,,
End Wavelength (nm):,1700,,,,,,End Wavelength (nm):,1700,,,,,,,
Pattern Width (nm):,7.03,,,,,,Pattern Width (nm):,7.03,,,,,,,
Exposure (ms):,0.635,,,,,,Exposure (ms):,0.635,,,,,,,
Digital Resolution:,228,,,,,,Digital Resolution:,228,,,,,,,
Num Repeats:,3,,,,,,Num Repeats:,3,,,,,,,
PGA Gain:,64,(FixedPGA),,,,,PGA Gain:,64,(AutoPGA),,,,,,
System Temp (C):,34.51,,,,,,System Temp (C):,29.46,,,,,,,
Humidity (%):,39.18,,,,,,Humidity (%):,52.02,,,,,,,
Lamp Indicator:,1147,,,,,,Lamp Indicator:,1099,,,,,,,
Data Date-Time:,2025/08/09T14:11:14,,,,,,Data Date-Time:,2025/08/09T13:22:04,,,,,,,
Total Measurement Time in sec:,2.412094,,,,,,,,,,,,,,
,,,,,,,,,,,,,,,
***General Information***,,,,,,,***Calibration Coefficients***,,,,,,,,
Model Name:,NIR-R210,,,,,,Shift Vector Coefficients:,-5.72686255341989,0.0566949379947153,-0.000136804211203387,,,,,
Serial Number:,734R012,(N/A),,,,,Pixel to Wavelength Coefficients:,1812.09528251196,-0.912948081806683,-0.000238884275033469,,,,,
GUI Version:,3.9.8,Revision:,830,,,,Versions (Cal/Ref/Cfg):,1,3,1,,,,,
TIVA Version:,2.4.10,,,,,,***Lamp Usage ***,,,,,,,,
DLPC Version:,2.0.0,,,,,,Total Time(hh:mm:ss):,N/A,,,,,,,
UUID:,D6:65:30:51:9A:41:0D:28,,,,,,***Device/Error/Activation Status***,,,,,,,,
Main Board Version:,D,,,,,,Device Status:,0x00000001,Activation Status:,Not activated,,,,,
Detector Board Version:,B,,,,,,Error status:,0x00000000,Error Code:,0x00000000000000000000000000000000,,,,,
,,,,,,,,,Error Details:,Not found,,,,,
***Scan Data***,,,,,,,,,,,,,,,
Num Scan:,3

Wavelength (nm),Absorbance (AU),Reference Signal (unitless),Sample Signal (unitless)
900.894453969064,0.372348882389905,61165,25951
904.808608847648,0.371906913322771,71524,30377
910.020793259393,0.368543867438623,81743,34987
913.924914998427,0.374167018720322,88693,37473.3333333333
917.82473682051,0.371609917004189,96017,40807.3333333333
921.720258725642,0.371965423704784,105300,44716
925.611480713823,0.372154557409092,115956,49219.6666666667
929.498402785054,0.375195019688494,129721,54678.3333333333
933.381024939334,0.375187245988966,145333,61260
937.259347176664,0.374081384922899,161102,68080
941.133369497043,0.374100456926712,176880,74744.3333333333
945.003091900472,0.368984386393617,190875,81614
948.86851438695,0.368169967675771,204873,87763.6666666667
954.015722275886,0.367631232186084,222646,95495.6666666667
957.871111622812,0.368411110135796,236435,101228
961.722201052788,0.369225022144663,250209,106924.666666667
965.568990565813,0.372491261098928,265026,112408
969.411480161888,0.371242864622658,277918,118215.333333333
973.249669841012,0.37279700437395,291257,123446.666666667
977.083559603186,0.375448189826587,304760,128383.666666667
980.913149448408,0.376397797182116,316097,132868.666666667
984.738439376681,0.378547911807963,326323,136489.666666667
988.559429388003,0.377780962741349,334592,140195.666666667
993.64739397673,0.380062894512113,344807,143718.666666667
997.458350848501,0.379289205063596,349688,146013
1001.26500780332,0.378624548610914,353644,147891
1005.06736484119,0.379547263753866,357116,149026
1008.86542196211,0.378289543706878,359485,150449.666666667
1012.65917916608,0.377177948824759,360943,151447
1016.44863645309,0.377784993916828,363031,152110.333333333
1020.23379382316,0.377934699178326,363948,152442
1024.01465127628,0.37587478281705,364282,153307.333333333
1027.79120881244,0.377146615574278,365769,153483
1032.81993010096,0.375137237930043,367653,154989
1036.58645449757,0.373742905461406,369308,156187.333333333
1040.34867897724,0.373310353526627,370049,156656.666666667
1044.10660353995,0.373136282014858,372221,157639.333333333
1047.86022818571,0.372064408986944,373567,158600.333333333
1051.60955291452,0.372127750520873,375404,159357
1055.35457772639,0.370298850909778,377310,160842
1059.0953026213,0.370413102315956,379148,161583
1062.83172759926,0.37013763459342,381319,162611.333333333
1066.56385266027,0.368724645411737,384184,164367
1071.53333064858,0.367893944191453,387908,166278
1075.25542257003,0.36822591003784,390607,167307
1078.97321457454,0.366578020729393,393646,169249.666666667
1082.6867066621,0.365957841201877,396671,170794
1086.3958988327,0.365851209114234,399870,172213.666666667
1090.10079108636,0.365019389800965,402904,173853
1093.80138342306,0.364873620797012,405606,175077.666666667
1097.49767584282,0.364619634974674,407871,176158.333333333
1101.18966834562,0.36512825318968,411381,177466.333333333
1104.87736093148,0.365198314622921,413721,178447
1108.56075360038,0.364560689356527,415453,179457.333333333
1113.46525506588,0.365154476980335,418471,180514
1117.13861459523,0.364993613950333,419674,181100
1120.80767420763,0.365366803371031,421639,181791.666666667
1124.47243390308,0.367012891359834,423459,181885.666666667
1128.13289368158,0.367545440949476,424228,181992.666666667
1131.78905354313,0.372108944246838,426045,180861.666666667
1135.44091348773,0.375132710829408,426478,179789.333333333
1139.08847351537,0.380405681324927,427601,178087.333333333
1142.73173362607,0.386421417594478,428210,175887.666666667
1146.37069381982,0.3935325411975,430333,173889
1151.21595198511,0.40254420522546,431572,170808.333333333
1154.84487903931,0.409753002560917,433166,168617
1158.46950617655,0.417137726607903,435811,166786.333333333
1162.08983339684,0.423813973901734,437511,164882.666666667
1165.70586070019,0.431902837899141,440470,162934.666666667
1169.31758808658,0.438401847792491,443261,161531.666666667
1172.92501555602,0.444248694499858,446330,160475
1176.52814310851,0.450866347117492,450024,159356.333333333
1180.12697074405,0.457545762279929,453937,158288.666666667
1183.72149846264,0.463333621995248,458109,157628.666666667
1188.50751332773,0.47115026183562,464689,157040.666666667
1192.09200790677,0.474926761315804,470015,157465.333333333
1195.67220256885,0.476051596998943,476072,159082
1199.24809731399,0.47833099320404,482088,160249
1202.81969214218,0.477836369854257,488677,162624.333333333
1206.38698705341,0.477398722556719,496329,165337.333333333
1209.9499820477,0.47559673063224,503908,168560
1213.50867712503,0.472608506332167,511433,172258.333333333
1217.06307228542,0.469793042405081,519363,176067
1220.61316752885,0.465671946807334,528308,180807
1224.15896285534,0.461920795349407,536018,185037
1228.88000119761,0.457725988774889,547278,190757.666666667
1232.41576338454,0.455025928498252,557050,195374.666666667
1235.94722565453,0.451250405313128,566065,200270
1239.47438800756,0.449044208669556,575725,204725
1242.99725044364,0.447714169634242,584235,208388.333333333
1246.51581296276,0.445274404385472,594054,213084.333333333
1250.03007556494,0.443327878914382,602549,217102.333333333
1253.54003825017,0.442536245151331,612257,221002.666666667
1257.04570101845,0.441511583265847,621056,224708.333333333
1260.54706386978,0.441004463514743,630966,228560.666666667
1265.20885891184,0.439629474868671,643606,233878.666666667
1268.70018862362,0.440838368294422,652183,236336.666666667
1272.18721841844,0.439685871628607,661425,240322.666666667
1275.66994829632,0.43965306037368,669244,243182
1279.14837825724,0.439461435141493,677027,246118.666666667
1282.62250830122,0.43907551075367,683423,248664.666666667
1286.09233842824,0.438070453648411,689796,251565
1289.55786863831,0.437631309022583,695579,253930.666666667
1293.01909893143,0.436676765187194,699163,255800.666666667
1296.4760293076,0.436681982892731,703715,257463
1301.07858104946,0.437345683573705,709736,259269.333333333
1304.52547828608,0.437970609512446,713970,260441
1307.96807560575,0.438519464788914,717163,261275.333333333
1311.40637300847,0.440196401284055,719966,261285.666666667
1314.84037049424,0.44134481927123,722284,261434.666666667
1318.27006806305,0.443866094611994,725225,260979.666666667
1321.69546571492,0.447463509829946,727780,259738.666666667
1325.11656344983,0.450117222893146,730006,258946
1328.5333612678,0.455217878002397,732700,256867
1331.94585916881,0.459508726003739,734345,254912.666666667
1336.48916761047,0.467055016587975,736319,251195
1339.89163237193,0.474236767536089,737558,247491
1343.28979721644,0.481143626016957,738142,243779
1346.683662144,0.48769140479341,738619,240286.333333333
1350.07322715461,0.495598397259924,738629,235954.333333333
1353.45849224827,0.503364559406335,737833,231522.666666667
1356.83945742498,0.51116473552035,736434,226970.333333333
1360.21612268474,0.519042804716308,736474,222902.333333333
1363.58848802755,0.525590434095622,735327,219225
1366.95655345341,0.532977994846871,735097,215460
1370.32031896232,0.538895201122245,734900,212487.333333333
1374.79865088116,0.548679243801292,735706,207981.666666667
1378.15238325052,0.555156324559574,734943,204690.333333333
1381.50181570292,0.561774804451728,732762,200996.333333333
1384.84694823838,0.572090517269881,731846,196033
1388.18778085688,0.582146107590737,730676,191240
1391.52431355844,0.595451571593859,728938,185028.666666667
1394.85654634304,0.611704294528658,727102,177783.333333333
1398.18447921069,0.628429152025825,724362,170422.333333333
1401.50811216139,0.648014154846833,722247,162432
1404.82744519514,0.668541491609406,719566,154358
1409.24653381378,0.697269762345251,716272,143816.333333333
1412.55583370798,0.720685556118224,714694,135967.333333333
1415.86083368523,0.741104767739601,713042,129422.666666667
1419.16153374553,0.761432999500281,711262,123196
1422.45793388888,0.779801323919775,710137,117907.333333333
1425.75003411527,0.797584338459845,709598,113091
1429.03783442472,0.810076176465735,708041,109643.333333333
1432.32133481722,0.822640272803491,708142,106532
1435.60053529276,0.834701366380399,706756,103411.333333333
1438.87543585136,0.842180484835406,707115,101697.333333333
1443.23528116978,0.852330100656004,706912,99319.6666666667
1446.50014858883,0.855706040264537,705956,98417.3333333333
1449.76071609092,0.859823992932567,705433,97416.3333333333
1453.01698367606,0.863401811973585,705077,96568.3333333333
1456.26895134425,0.865404881092512,703933,95968
1459.5166190955,0.867478763454963,702932,95375
1462.75998692979,0.868872781791756,700832,94785.3333333333
1465.99905484713,0.870863116192406,698515,94040
1469.23382284752,0.872556870845929,696323,93380
1472.46429093096,0.872186800915696,693306,93054.6666666667
1476.76489294917,0.874351513493307,689657,92104.6666666667
1479.98532789306,0.871397037259344,686838,92354.3333333333
1483.20146292,0.871379550769727,684443,92036
1486.41329802998,0.870594240051014,680351,91651.3333333333
1489.62083322302,0.869288069509573,676729,91438
1492.8240684991,0.870241923474189,673732,90833.3333333333
1496.02300385824,0.866030879678935,669890,91195.3333333333
1499.21763930042,0.865110119585827,665764,90826
1502.40797482566,0.860680038862364,662328,91283.6666666667
1505.59401043394,0.860232260562773,658060,90789
1508.77574612527,0.85562278724975,653668,91145.3333333333
1513.01137162068,0.853595812444117,647807,90750.6666666667
1516.18307417246,0.852089838844435,642776,90358.6666666667
1519.35047680729,0.847027659697582,636853,90575.6666666667
1522.51357952517,0.845728920350749,631257,90048.6666666667
1525.6723823261,0.840705356942182,626083,90349.6666666667
1528.82688521008,0.840050749412501,619667,89558.6666666667
1531.9770881771,0.838607451108618,614140,89055.3333333333
1535.12299122718,0.833888146993479,607382,89037.6666666667
1538.26459436031,0.834904857239122,601756,88006.6666666667
1541.40189757648,0.830734641099722,594204,87740.6666666667
1545.57827977168,0.827854673621487,584861,86935.6666666667
1548.70554984831,0.826851234613816,578079,86126.3333333333
1551.82852000798,0.824447109405246,571488,85617
1554.94719025071,0.823430452343936,563266,84583
1558.06156057648,0.821043736436584,555713,83908.6666666667
1561.1716309853,0.818746140382343,547023,83034.6666666667
1564.27740147717,0.818335099680818,540016,82048.6666666667
1567.37887205209,0.817077893291538,531678,81016
1570.47604271006,0.817704987989239,523035,79584
1573.56891345108,0.814054628977094,514017,78872
1577.68605234607,0.811434865127294,502079,77506.3333333333
1580.76888994754,0.810117954046718,494135,76511.6666666667
1583.84742763206,0.805550627101605,484769,75855
1586.92166539963,0.805383472203135,475460,74427
1589.99160325024,0.803613264474715,466116,73262.3333333333
1593.05724118391,0.800912659960032,456969,72272.6666666667
1596.11857920063,0.795015293778487,447506,71743.6666666667
1599.17561730039,0.793430767920603,439245,70676.6666666667
1602.2283554832,0.786746280835675,429113,70117.3333333333
1605.27679374907,0.782422389848998,419968,69309.6666666667
1609.33468934385,0.776217058474983,407521,68223.3333333333
1612.37309447016,0.774086650672237,398489,67039.3333333333
1615.40719967952,0.772503780706686,389802,65817.3333333333
1618.43700497194,0.76376729827444,380551,65561
1621.4625103474,0.762376178259979,371710,64243.3333333333
1624.48371580591,0.756654129187368,362463,63476
1627.50062134746,0.756349799043026,353431,61937.6666666667
1630.51322697207,0.751012455403365,344400,61101.3333333333
1633.52153267973,0.747058997613524,335271,60025.6666666667
1636.52553847044,0.743243820513857,325918,58866
1639.52524434419,0.739530243565628,316982,57743.6666666667
1643.51816341617,0.738770184769967,305331,55718.6666666667
1646.50783615037,0.731785860647094,295134,54731
1649.49320896763,0.728553795901101,285124,53269.6666666667
1652.47428186793,0.723534954332667,274811,51939.6666666667
1655.45105485129,0.721369278864578,264180,50180
1658.42352791769,0.717892392751904,250984,48056.6666666667
1661.39170106714,0.704023383843431,235469,46549
1664.35557429964,0.692641601243669,216668,43969.6666666667
1667.31514761519,0.683871560882197,196183,40624.6666666667
1670.27042101379,0.669229896546274,174581,37391
1674.20409678556,0.649181042150355,143952,32287.6666666667
1677.14933704461,0.638923462077545,123337,28325
1680.09027738671,0.639366808983952,105172,24128.6666666667
1683.02691781185,0.633875958409682,88996,20677.3333333333
1685.95925832005,0.643993904110503,75582,17156.3333333333
1688.8872989113,0.636329724992601,63863,14754.3333333333
1691.81103958559,0.644059351980833,55494,12594.6666666667
1694.73048034294,0.667787770245561,47752,10261.3333333333
1697.64562118333,0.67303386634519,41556,8822.66666666667
1700.55646210678,0.66134466227495,35632,7771.33333333333
