***Scan Config Information***,,,,,,,***Reference Scan Information***,,,,,,,,
Scan Config Name:,Column 1,,,,,,Scan Config Name:,Local New Reference,,,,,,,
Scan Config Type:,Slew,Num Section:,1,,,,Scan Config Type:,Slew,Num Section:,1,,,,,
Section Config Type:,Column,,,,,,Section Config Type:,Column,,,,,,,
Start Wavelength (nm):,900,,,,,,Start Wavelength (nm):,900,,,,,,,
End Wavelength (nm):,1700,,,,,,End Wavelength (nm):,1700,,,,,,,
Pattern Width (nm):,7.03,,,,,,Pattern Width (nm):,7.03,,,,,,,
Exposure (ms):,0.635,,,,,,Exposure (ms):,0.635,,,,,,,
Digital Resolution:,228,,,,,,Digital Resolution:,228,,,,,,,
Num Repeats:,3,,,,,,Num Repeats:,3,,,,,,,
PGA Gain:,64,(FixedPGA),,,,,PGA Gain:,64,(AutoPGA),,,,,,
System Temp (C):,34.64,,,,,,System Temp (C):,29.46,,,,,,,
Humidity (%):,38.8,,,,,,Humidity (%):,52.02,,,,,,,
Lamp Indicator:,1146,,,,,,Lamp Indicator:,1099,,,,,,,
Data Date-Time:,2025/08/09T14:13:07,,,,,,Data Date-Time:,2025/08/09T13:22:04,,,,,,,
Total Measurement Time in sec:,2.4175983,,,,,,,,,,,,,,
,,,,,,,,,,,,,,,
***General Information***,,,,,,,***Calibration Coefficients***,,,,,,,,
Model Name:,NIR-R210,,,,,,Shift Vector Coefficients:,-5.72686255341989,0.0566949379947153,-0.000136804211203387,,,,,
Serial Number:,734R012,(N/A),,,,,Pixel to Wavelength Coefficients:,1812.09528251196,-0.912948081806683,-0.000238884275033469,,,,,
GUI Version:,3.9.8,Revision:,830,,,,Versions (Cal/Ref/Cfg):,1,3,1,,,,,
TIVA Version:,2.4.10,,,,,,***Lamp Usage ***,,,,,,,,
DLPC Version:,2.0.0,,,,,,Total Time(hh:mm:ss):,N/A,,,,,,,
UUID:,D6:65:30:51:9A:41:0D:28,,,,,,***Device/Error/Activation Status***,,,,,,,,
Main Board Version:,D,,,,,,Device Status:,0x00000001,Activation Status:,Not activated,,,,,
Detector Board Version:,B,,,,,,Error status:,0x00000000,Error Code:,0x00000000000000000000000000000000,,,,,
,,,,,,,,,Error Details:,Not found,,,,,
***Scan Data***,,,,,,,,,,,,,,,
Num Scan:,3

Wavelength (nm),Absorbance (AU),Reference Signal (unitless),Sample Signal (unitless)
900.894453969064,0.514266739720087,61165,18717
904.808608847648,0.505666811423787,71524,22324.6666666667
910.020793259393,0.511498344584127,81743,25174
913.924914998427,0.516793746587848,88693,26983.3333333333
917.82473682051,0.518440219606979,96017,29101
921.720258725642,0.518565084879605,105300,31905.3333333333
925.611480713823,0.517729999409954,115956,35201.6666666667
929.498402785054,0.519971721095193,129721,39177.6666666667
933.381024939334,0.525415211804826,145333,43346
937.259347176664,0.524423471585851,161102,48159
941.133369497043,0.522581482229811,176880,53100.3333333333
945.003091900472,0.519222129726335,190875,57746.6666666667
948.86851438695,0.520648539302313,204873,61778.3333333333
954.015722275886,0.521244183587032,222646,67045.6666666667
957.871111622812,0.524919368630524,236435,70598
961.722201052788,0.526521844794628,250209,74435.6666666667
965.568990565813,0.53017615091897,265026,78183
969.411480161888,0.533016700488335,277918,81451.6666666667
973.249669841012,0.537318596298537,291257,84519.6666666667
977.083559603186,0.54182419148445,304760,87525.3333333333
980.913149448408,0.544763120823772,316097,90169
984.738439376681,0.547261876881037,326323,92552
988.559429388003,0.549091403965348,334592,94498.3333333333
993.64739397673,0.551622957370286,344807,96817.3333333333
997.458350848501,0.551498486348468,349688,98216
1001.26500780332,0.550989165000902,353644,99443.6666666667
1005.06736484119,0.553397451750316,357116,99864.6666666667
1008.86542196211,0.550038460834909,359485,101307.666666667
1012.65917916608,0.550203086132561,360943,101680
1016.44863645309,0.551539442673258,363031,101954
1020.23379382316,0.552094421339753,363948,102081
1024.01465127628,0.549354481025043,364282,102821.333333333
1027.79120881244,0.547736763414193,365769,103626.333333333
1032.81993010096,0.54882813982336,367653,103898.666666667
1036.58645449757,0.545751565814952,369308,105108.333333333
1040.34867897724,0.544107557800415,370049,105718.666666667
1044.10660353995,0.54484677998865,372221,106158.333333333
1047.86022818571,0.542608771860028,373567,107092.666666667
1051.60955291452,0.541034929721701,375404,108010
1055.35457772639,0.540234440947266,377310,108758.666666667
1059.0953026213,0.537170053769185,379148,110062.333333333
1062.83172759926,0.536305993077306,381319,110913
1066.56385266027,0.53594082117363,384184,111840.333333333
1071.53333064858,0.535879671157329,387908,112940.333333333
1075.25542257003,0.533612740934571,390607,114321.333333333
1078.97321457454,0.533830585938531,393646,115153
1082.6867066621,0.533013829635051,396671,116256.333333333
1086.3958988327,0.531978298226282,399870,117473.666666667
1090.10079108636,0.531209666601293,402904,118574.666666667
1093.80138342306,0.531158244774133,405606,119384
1097.49767584282,0.529719628961428,407871,120449
1101.18966834562,0.531758063152097,411381,120916.666666667
1104.87736093148,0.531950220588472,413721,121550.666666667
1108.56075360038,0.529324711434283,415453,122799.666666667
1113.46525506588,0.531980400769209,418471,122937.666666667
1117.13861459523,0.53143386944358,419674,123446.333333333
1120.80767420763,0.531818061688849,421639,123914.666666667
1124.47243390308,0.533981987500059,423459,123831
1128.13289368158,0.53559374257638,424228,123596.333333333
1131.78905354313,0.540068528332557,426045,122853.333333333
1135.44091348773,0.544419339824376,426478,121752.333333333
1139.08847351537,0.552002255104008,427601,119960
1142.73173362607,0.558311216203579,428210,118398.333333333
1146.37069381982,0.567338332808215,430333,116537.666666667
1151.21595198511,0.577841209839546,431572,114080.666666667
1154.84487903931,0.587883788380366,433166,111884.666666667
1158.46950617655,0.597985788710551,435811,109979.666666667
1162.08983339684,0.606761715854628,437511,108200
1165.70586070019,0.616928449431291,440470,106411.333333333
1169.31758808658,0.623880722029829,443261,105385
1172.92501555602,0.63213165208461,446330,104117.666666667
1176.52814310851,0.642335303538874,450024,102541.666666667
1180.12697074405,0.650299974609381,453937,101553.666666667
1183.72149846264,0.659138515924211,458109,100422.333333333
1188.50751332773,0.66492863464765,464689,100515.666666667
1192.09200790677,0.667412113951678,470015,101088
1195.67220256885,0.67242632964153,476072,101215.333333333
1199.24809731399,0.675283276289027,482088,101822.333333333
1202.81969214218,0.672873361102779,488677,103788.333333333
1206.38698705341,0.67328079382541,496329,105314.666666667
1209.9499820477,0.669976969330222,503908,107739.333333333
1213.50867712503,0.667148716304744,511433,110062.666666667
1217.06307228542,0.661552970714376,519363,113218.666666667
1220.61316752885,0.656680569332395,528308,116468
1224.15896285534,0.651404621800372,536018,119612
1228.88000119761,0.644599551983301,547278,124053.333333333
1232.41576338454,0.640839532197805,557050,127366.333333333
1235.94722565453,0.637150419885337,566065,130531.666666667
1239.47438800756,0.633506953955416,575725,133877.666666667
1242.99725044364,0.630496182406271,584235,136801.666666667
1246.51581296276,0.628193473996553,594054,139840.333333333
1250.03007556494,0.626304510940863,602549,142458.333333333
1253.54003825017,0.624124496314642,612257,145482
1257.04570101845,0.623941433454656,621056,147635
1260.54706386978,0.623055645695297,630966,150297
1265.20885891184,0.622465495216425,643606,153516.333333333
1268.70018862362,0.622271505809221,652183,155631.666666667
1272.18721841844,0.622571809520133,661425,157728
1275.66994829632,0.621171453740738,669244,160108
1279.14837825724,0.621020384800026,677027,162026.333333333
1282.62250830122,0.621137303824214,683423,163513
1286.09233842824,0.619148369412013,689796,165795.333333333
1289.55786863831,0.618433646067774,695579,167460.666666667
1293.01909893143,0.617281471271545,699163,168770.666666667
1296.4760293076,0.617874518115145,703715,169637.666666667
1301.07858104946,0.617961061251217,709736,171055
1304.52547828608,0.619252112915181,713970,171564.666666667
1307.96807560575,0.620357999644566,717163,171893.666666667
1311.40637300847,0.621670773430233,719966,172044.666666667
1314.84037049424,0.6241949290938,722284,171598.333333333
1318.27006806305,0.627646004916029,725225,170933.333333333
1321.69546571492,0.632283300139324,727780,169713.666666667
1325.11656344983,0.637208768752523,730006,168313
1328.5333612678,0.643765039826481,732700,166403
1331.94585916881,0.649604015094895,734345,164549.333333333
1336.48916761047,0.658977748082399,736319,161468.666666667
1339.89163237193,0.668554927381327,737558,158212.666666667
1343.28979721644,0.67887518455011,738142,154619.666666667
1346.683662144,0.687758517023708,738619,151587
1350.07322715461,0.697996431868188,738629,148057.333333333
1353.45849224827,0.708932584167643,737833,144220
1356.83945742498,0.717649910248857,736434,141086
1360.21612268474,0.730261479179126,736474,137055.333333333
1363.58848802755,0.73698934186768,735327,134738.333333333
1366.95655345341,0.746562162897155,735097,131759.666666667
1370.32031896232,0.755400694131788,734900,129070.666666667
1374.79865088116,0.767499178359773,735706,125662.333333333
1378.15238325052,0.776758318150429,734943,122884
1381.50181570292,0.787331024514642,732762,119572.666666667
1384.84694823838,0.799601199834289,731846,116096.333333333
1388.18778085688,0.813759081560744,730676,112193
1391.52431355844,0.83141950659483,728938,107466
1394.85654634304,0.852331459795768,727102,102156
1398.18447921069,0.875763009000717,724362,96425.6666666667
1401.50811216139,0.902727147685592,722247,90356.3333333333
1404.82744519514,0.928169764734507,719566,84898.6666666667
1409.24653381378,0.965559645628414,716272,77538.6666666667
1412.55583370798,0.99641181592865,714694,72062.3333333333
1415.86083368523,1.02044656121077,713042,68025
1419.16153374553,1.04748356871214,711262,63759.6666666667
1422.45793388888,1.07110646192694,710137,60288.6666666667
1425.75003411527,1.09129418801335,709598,57506.6666666667
1429.03783442472,1.10746680425336,708041,55283
1432.32133481722,1.12672215306268,708142,52893
1435.60053529276,1.13874315230617,706756,51348.3333333333
1438.87543585136,1.14763148132544,707115,50333.6666666667
1443.23528116978,1.16101079970979,706912,48792.6666666667
1446.50014858883,1.16274049624137,705956,48533
1449.76071609092,1.17027439781406,705433,47663
1453.01698367606,1.1740277978134,705077,47229
1456.26895134425,1.17880382330106,703933,46636.6666666667
1459.5166190955,1.17836278223787,702932,46617.6666666667
1462.75998692979,1.18134498721608,700832,46160.3333333333
1465.99905484713,1.18457008418941,698515,45667.3333333333
1469.23382284752,1.1855381133174,696323,45422.6666666667
1472.46429093096,1.1869667423643,693306,45077.3333333333
1476.76489294917,1.18614828524159,689657,44924.6666666667
1479.98532789306,1.185948066148,686838,44761.6666666667
1483.20146292,1.18570715569885,684443,44630.3333333333
1486.41329802998,1.18637832144193,680351,44295
1489.62083322302,1.18324379989089,676729,44378.3333333333
1492.8240684991,1.18158702295866,673732,44350.6666666667
1496.02300385824,1.18432451434441,669890,43820.6666666667
1499.21763930042,1.17914112502841,665764,44073.6666666667
1502.40797482566,1.17697277036773,662328,44065.6666666667
1505.59401043394,1.1739483786667,658060,44087.6666666667
1508.77574612527,1.16811773903548,653668,44385.3333333333
1513.01137162068,1.17202223745361,647807,43593.6666666667
1516.18307417246,1.16924770671842,642776,43532.3333333333
1519.35047680729,1.1641710436207,636853,43638.3333333333
1522.51357952517,1.16489674915041,631257,43182.6666666667
1525.6723823261,1.16128222695066,626083,43186.6666666667
1528.82688521008,1.15505240209884,619667,43361.6666666667
1531.9770881771,1.1583958712715,614140,42645.3333333333
1535.12299122718,1.15548533691188,607382,42459.6666666667
1538.26459436031,1.15749672394441,601756,41872
1541.40189757648,1.1560828635587,594204,41481.3333333333
1545.57827977168,1.15101498962479,584861,41308.3333333333
1548.70554984831,1.15351464721131,578079,40595
1551.82852000798,1.15558455706856,571488,39941.3333333333
1554.94719025071,1.1502706805739,563266,39851.3333333333
1558.06156057648,1.15032173493649,555713,39312.3333333333
1561.1716309853,1.15002911390005,547023,38723.6666666667
1564.27740147717,1.14995689179901,540016,38234
1567.37887205209,1.14966459913438,531678,37669
1570.47604271006,1.151932221187,523035,36863.6666666667
1573.56891345108,1.1474726658981,514017,36602
1577.68605234607,1.14650100747875,502079,35832
1580.76888994754,1.14587410827715,494135,35316
1583.84742763206,1.14542235784567,484769,34682.6666666667
1586.92166539963,1.14421104684605,475460,34111.6666666667
1589.99160325024,1.14535042672939,466116,33353.6666666667
1593.05724118391,1.14298575125799,456969,32877.6666666667
1596.11857920063,1.13640165598933,447506,32688.6666666667
1599.17561730039,1.13191614307882,439245,32418.3333333333
1602.2283554832,1.13087353969205,429113,31746.6666666667
1605.27679374907,1.12408379249247,419968,31559.6666666667
1609.33468934385,1.11875094242661,407521,31002.6666666667
1612.37309447016,1.11689084930219,398489,30445.6666666667
1615.40719967952,1.11421528788743,389802,29966
1618.43700497194,1.11163244342492,380551,29429.3333333333
1621.4625103474,1.10305509145403,371710,29319
1624.48371580591,1.09610757744671,362463,29050.6666666667
1627.50062134746,1.09168053600009,353431,28617
1630.51322697207,1.09303917683462,344400,27798.6666666667
1633.52153267973,1.09073661717248,335271,27205.6666666667
1636.52553847044,1.08324306787603,325918,26907
1639.52524434419,1.08096327646634,316982,26307
1643.51816341617,1.07913431028455,305331,25447
1646.50783615037,1.07281526393273,295134,24957.6666666667
1649.49320896763,1.06840997898473,285124,24357
1652.47428186793,1.06693256681444,274811,23556
1655.45105485129,1.05610630523142,264180,23216.3333333333
1658.42352791769,1.06208029458608,250984,21755.3333333333
1661.39170106714,1.04987302559503,235469,20992.3333333333
1664.35557429964,1.03633105996795,216668,19928
1667.31514761519,1.02870197046724,196183,18363.6666666667
1670.27042101379,1.00596382968514,174581,17220
1674.20409678556,0.992914010666754,143952,14632
1677.14933704461,0.982291656490954,123337,12847
1680.09027738671,0.978354480991586,105172,11054.6666666667
1683.02691781185,0.9738620904508,88996,9451.66666666667
1685.95925832005,0.997090795640694,75582,7609
1688.8872989113,0.981927268621467,63863,6657.66666666667
1691.81103958559,1.00528059212756,55494,5482.33333333333
1694.73048034294,1.05681209436982,47752,4189.66666666667
1697.64562118333,1.03047412121399,41556,3874
1700.55646210678,1.02597511355284,35632,3356.33333333333
