***Scan Config Information***,,,,,,,***Reference Scan Information***,,,,,,,,
Scan Config Name:,Column 1,,,,,,Scan Config Name:,Local New Reference,,,,,,,
Scan Config Type:,Slew,Num Section:,1,,,,Scan Config Type:,Slew,Num Section:,1,,,,,
Section Config Type:,Column,,,,,,Section Config Type:,Column,,,,,,,
Start Wavelength (nm):,900,,,,,,Start Wavelength (nm):,900,,,,,,,
End Wavelength (nm):,1700,,,,,,End Wavelength (nm):,1700,,,,,,,
Pattern Width (nm):,7.03,,,,,,Pattern Width (nm):,7.03,,,,,,,
Exposure (ms):,0.635,,,,,,Exposure (ms):,0.635,,,,,,,
Digital Resolution:,228,,,,,,Digital Resolution:,228,,,,,,,
Num Repeats:,3,,,,,,Num Repeats:,3,,,,,,,
PGA Gain:,64,(FixedPGA),,,,,PGA Gain:,64,(AutoPGA),,,,,,
System Temp (C):,34.51,,,,,,System Temp (C):,29.46,,,,,,,
Humidity (%):,34.66,,,,,,Humidity (%):,52.02,,,,,,,
Lamp Indicator:,1146,,,,,,Lamp Indicator:,1099,,,,,,,
Data Date-Time:,2025/08/09T14:54:07,,,,,,Data Date-Time:,2025/08/09T13:22:04,,,,,,,
Total Measurement Time in sec:,2.4151919,,,,,,,,,,,,,,
,,,,,,,,,,,,,,,
***General Information***,,,,,,,***Calibration Coefficients***,,,,,,,,
Model Name:,NIR-R210,,,,,,Shift Vector Coefficients:,-5.72686255341989,0.0566949379947153,-0.000136804211203387,,,,,
Serial Number:,734R012,(N/A),,,,,Pixel to Wavelength Coefficients:,1812.09528251196,-0.912948081806683,-0.000238884275033469,,,,,
GUI Version:,3.9.8,Revision:,830,,,,Versions (Cal/Ref/Cfg):,1,3,1,,,,,
TIVA Version:,2.4.10,,,,,,***Lamp Usage ***,,,,,,,,
DLPC Version:,2.0.0,,,,,,Total Time(hh:mm:ss):,N/A,,,,,,,
UUID:,D6:65:30:51:9A:41:0D:28,,,,,,***Device/Error/Activation Status***,,,,,,,,
Main Board Version:,D,,,,,,Device Status:,0x00000001,Activation Status:,Not activated,,,,,
Detector Board Version:,B,,,,,,Error status:,0x00000000,Error Code:,0x00000000000000000000000000000000,,,,,
,,,,,,,,,Error Details:,Not found,,,,,
***Scan Data***,,,,,,,,,,,,,,,
Num Scan:,3

Wavelength (nm),Absorbance (AU),Reference Signal (unitless),Sample Signal (unitless)
900.894453969064,0.318633537941142,61165,29367.6666666667
904.808608847648,0.310615435670909,71524,34981.3333333333
910.020793259393,0.315161356404452,81743,39563
913.924914998427,0.318466153126046,88693,42601.3333333333
917.82473682051,0.319058772874844,96017,46056.3333333333
921.720258725642,0.32377117149963,105300,49964
925.611480713823,0.323401808429012,115956,55067
929.498402785054,0.328229006995065,129721,60923
933.381024939334,0.332047222413187,145333,67657.6666666667
937.259347176664,0.332317706057626,161102,74952
941.133369497043,0.330409599349466,176880,82655
945.003091900472,0.328093808292488,190875,89671.6666666667
948.86851438695,0.329928859096176,204873,95842
954.015722275886,0.3306191426197,222646,103991
957.871111622812,0.334845322587029,236435,109362
961.722201052788,0.337284205129367,250209,115085
965.568990565813,0.341735958998329,265026,120657
969.411480161888,0.343482944254848,277918,126018.333333333
973.249669841012,0.34797530998895,291257,130707.666666667
977.083559603186,0.350807753672189,304760,135878.333333333
980.913149448408,0.352889635876838,316097,140259
984.738439376681,0.356045873984876,326323,143748
988.559429388003,0.357156858734453,334592,147014
993.64739397673,0.35986550635518,344807,150560.333333333
997.458350848501,0.362255446304712,349688,151853.666666667
1001.26500780332,0.361703152802206,353644,153767
1005.06736484119,0.363342389860727,357116,154691.666666667
1008.86542196211,0.363379144449168,359485,155704.666666667
1012.65917916608,0.365721264000507,360943,155495.333333333
1016.44863645309,0.366426755499425,363031,156141
1020.23379382316,0.36766240164728,363948,156090.666666667
1024.01465127628,0.366155362530696,364282,156777
1027.79120881244,0.367465867381312,365769,156942.666666667
1032.81993010096,0.366918483866755,367653,157950
1036.58645449757,0.368055974375871,369308,158246
1040.34867897724,0.366351636725322,370049,159187
1044.10660353995,0.367984823084286,372221,159520.333333333
1047.86022818571,0.366510303415556,373567,160641.666666667
1051.60955291452,0.366203582891408,375404,161545.666666667
1055.35457772639,0.367059107056887,377310,162046.333333333
1059.0953026213,0.36486091534705,379148,163662
1062.83172759926,0.364208275643462,381319,164846.666666667
1066.56385266027,0.36359740884816,384184,166319
1071.53333064858,0.363945407159078,387908,167796.666666667
1075.25542257003,0.362094009752598,390607,169686
1078.97321457454,0.362064866049182,393646,171017.666666667
1082.6867066621,0.361325082239599,396671,172625.666666667
1086.3958988327,0.361464430677178,399870,173962
1090.10079108636,0.360341665795059,402904,175735.666666667
1093.80138342306,0.359708465948305,405606,177172.333333333
1097.49767584282,0.359514405437822,407871,178241.333333333
1101.18966834562,0.360673628754734,411381,179296
1104.87736093148,0.360068381426413,413721,180567.333333333
1108.56075360038,0.3588802459423,415453,181820
1113.46525506588,0.359745406087643,418471,182776.333333333
1117.13861459523,0.358516939895757,419674,183821
1120.80767420763,0.359582779900223,421639,184229
1124.47243390308,0.35936662812915,423459,185116.333333333
1128.13289368158,0.360579435112741,424228,184935.333333333
1131.78905354313,0.362675177092001,426045,184833.333333333
1135.44091348773,0.365350328765869,426478,183885
1139.08847351537,0.369227273506306,427601,182730.666666667
1142.73173362607,0.372085222867318,428210,181790.666666667
1146.37069381982,0.376291667615696,430333,180931
1151.21595198511,0.382489855520222,431572,178880.666666667
1154.84487903931,0.38700196464034,433166,177685.666666667
1158.46950617655,0.392848028749596,435811,176380.333333333
1162.08983339684,0.397396212643657,437511,175223.666666667
1165.70586070019,0.402133347215147,440470,174495
1169.31758808658,0.405844952488967,443261,174106.333333333
1172.92501555602,0.408662779401394,446330,174178
1176.52814310851,0.410628826407864,450024,174826.333333333
1180.12697074405,0.414691077239739,453937,174704.666666667
1183.72149846264,0.417978757164449,458109,174980.666666667
1188.50751332773,0.422804441472944,464689,175532.666666667
1192.09200790677,0.425380952031198,470015,176494.333333333
1195.67220256885,0.428192999184167,476072,177615
1199.24809731399,0.428862711183218,482088,179582.333333333
1202.81969214218,0.429304613360117,488677,181851.666666667
1206.38698705341,0.429129574247222,496329,184773.666666667
1209.9499820477,0.429563899749244,503908,187407.666666667
1213.50867712503,0.428876289435808,511433,190507.666666667
1217.06307228542,0.426629558820175,519363,194465
1220.61316752885,0.424427845779134,528308,198819.666666667
1224.15896285534,0.420257996857639,536018,203667.333333333
1228.88000119761,0.415028106628145,547278,210465
1232.41576338454,0.412504679490559,557050,215471.333333333
1235.94722565453,0.409779528151892,566065,220336.666666667
1239.47438800756,0.408318333597665,575725,224852
1242.99725044364,0.407398637917867,584235,228659.333333333
1246.51581296276,0.406060133488324,594054,233220
1250.03007556494,0.404562271164922,602549,237372.333333333
1253.54003825017,0.404032809262148,612257,241491
1257.04570101845,0.403882553361493,621056,245046.333333333
1260.54706386978,0.403396346686803,630966,249235.333333333
1265.20885891184,0.403638208330981,643606,254086.666666667
1268.70018862362,0.404974059622687,652183,256682
1272.18721841844,0.404975294821126,661425,260318.666666667
1275.66994829632,0.404604483160806,669244,263621
1279.14837825724,0.405912696123734,677027,265884.666666667
1282.62250830122,0.405228013750293,683423,268820
1286.09233842824,0.40584059925574,689796,270944.333333333
1289.55786863831,0.405385426098406,695579,273502.333333333
1293.01909893143,0.404373818912118,699163,275552.666666667
1296.4760293076,0.405421657414178,703715,276678.333333333
1301.07858104946,0.406121438261998,709736,278596.333333333
1304.52547828608,0.406080107461975,713970,280285
1307.96807560575,0.406917737537378,717163,280996
1311.40637300847,0.407729719853725,719966,281567.333333333
1314.84037049424,0.408806563563493,722284,281774.333333333
1318.27006806305,0.410141530081564,725225,282053.333333333
1321.69546571492,0.412250785767019,727780,281675.666666667
1325.11656344983,0.413787351754111,730006,281539.333333333
1328.5333612678,0.416172993027858,732700,281030.333333333
1331.94585916881,0.41873125362929,734345,280007
1336.48916761047,0.422898334754905,736319,278078.666666667
1339.89163237193,0.426577745085325,737558,276196.666666667
1343.28979721644,0.430489221913351,738142,273937
1346.683662144,0.434384121091321,738619,271666.666666667
1350.07322715461,0.439313340124724,738629,268604.333333333
1353.45849224827,0.444836771699212,737833,264924
1356.83945742498,0.448431030556254,736434,262242.333333333
1360.21612268474,0.453707885879733,736474,259089.333333333
1363.58848802755,0.458486038524718,735327,255855.333333333
1366.95655345341,0.462504906266559,735097,253419.333333333
1370.32031896232,0.466375769478894,734900,251103.333333333
1374.79865088116,0.472841415018412,735706,247664
1378.15238325052,0.477312755880439,734943,244873
1381.50181570292,0.482811964909017,732762,241074.333333333
1384.84694823838,0.487760639683715,731846,238045
1388.18778085688,0.494470630405348,730676,234020.666666667
1391.52431355844,0.500959607797708,728938,230001.666666667
1394.85654634304,0.508931182270276,727102,225249.666666667
1398.18447921069,0.51736784623779,724362,220083.666666667
1401.50811216139,0.525978040241183,722247,215133.333333333
1404.82744519514,0.536753296312145,719566,209082.333333333
1409.24653381378,0.552347430407291,716272,200784.666666667
1412.55583370798,0.563559493401625,714694,195236.333333333
1415.86083368523,0.575121046961106,713042,189668
1419.16153374553,0.587129181112613,711262,184035
1422.45793388888,0.599019969241061,710137,178781.333333333
1425.75003411527,0.609489144852423,709598,174390.666666667
1429.03783442472,0.617827429873316,708041,170699
1432.32133481722,0.626507612350804,708142,167345
1435.60053529276,0.633644276265517,706756,164295.333333333
1438.87543585136,0.639707035163302,707115,162100
1443.23528116978,0.646327024709054,706912,159602
1446.50014858883,0.649814632659379,705956,158111.333333333
1449.76071609092,0.653050629992836,705433,156821.333333333
1453.01698367606,0.654757605992476,705077,156127.333333333
1456.26895134425,0.658037268377466,703933,154701.333333333
1459.5166190955,0.658914381008873,702932,154169.666666667
1462.75998692979,0.663464722658196,700832,152107
1465.99905484713,0.664350204120063,698515,151295.333333333
1469.23382284752,0.665212683751005,696323,150521.333333333
1472.46429093096,0.667255114733831,693306,149166
1476.76489294917,0.667212904974786,689657,148395.333333333
1479.98532789306,0.667729708258969,686838,147613
1483.20146292,0.669175667279056,684443,146609.333333333
1486.41329802998,0.668395045031634,680351,145995
1489.62083322302,0.668517967238592,676729,145176.666666667
1492.8240684991,0.668915972046062,673732,144401.333333333
1496.02300385824,0.668449018848729,669890,143732.333333333
1499.21763930042,0.666922610474091,665764,143350
1502.40797482566,0.665992262826186,662328,142916
1505.59401043394,0.664990403544252,658060,142323
1508.77574612527,0.663241205145402,653668,141943.666666667
1513.01137162068,0.662665146602586,647807,140857.666666667
1516.18307417246,0.661682486168489,642776,140080.333333333
1519.35047680729,0.659541790958128,636853,139475.333333333
1522.51357952517,0.657475822181609,631257,138909
1525.6723823261,0.656194056861055,626083,138177.666666667
1528.82688521008,0.655476900343121,619667,136987.666666667
1531.9770881771,0.654152991772528,614140,136180.333333333
1535.12299122718,0.653471430686063,607382,134893.333333333
1538.26459436031,0.651196766458415,601756,134345.666666667
1541.40189757648,0.649914163887222,594204,133052
1545.57827977168,0.649309755953591,584861,131142.333333333
1548.70554984831,0.648988064876762,578079,129717.666666667
1551.82852000798,0.648118633639864,571488,128495.666666667
1554.94719025071,0.646493958852356,563266,127121.666666667
1558.06156057648,0.645726085460914,555713,125639
1561.1716309853,0.64375230073811,547023,124237.666666667
1564.27740147717,0.644797921144918,540016,122351.333333333
1567.37887205209,0.645505823516664,531678,120266
1570.47604271006,0.645864288007465,523035,118213.333333333
1573.56891345108,0.644471415188135,514017,116548.333333333
1577.68605234607,0.643735159496831,502079,114034.666666667
1580.76888994754,0.644095392220218,494135,112137.333333333
1583.84742763206,0.643281000235283,484769,110218.333333333
1586.92166539963,0.642086039294914,475460,108399.666666667
1589.99160325024,0.640193938012429,466116,106733.333333333
1593.05724118391,0.640879902052965,456969,104473.666666667
1596.11857920063,0.636418351038005,447506,103366.666666667
1599.17561730039,0.635975581959489,439245,101562
1602.2283554832,0.634190259621467,429113,99628
1605.27679374907,0.630891008215723,419968,98248.3333333333
1609.33468934385,0.630638038966721,407521,95392
1612.37309447016,0.629830835381265,398489,93451.3333333333
1615.40719967952,0.626505848871659,389802,92116.6666666667
1618.43700497194,0.625365247259505,380551,90167
1621.4625103474,0.622947021686049,371710,88564
1624.48371580591,0.623018103966469,362463,86346.6666666667
1627.50062134746,0.620093196695642,353431,84764
1630.51322697207,0.61869899612844,344400,82863.6666666667
1633.52153267973,0.618113646548604,335271,80776
1636.52553847044,0.617870018805929,325918,78566.6666666667
1639.52524434419,0.61771013522455,316982,76440.6666666667
1643.51816341617,0.615396395289023,305331,74024.3333333333
1646.50783615037,0.611987613878433,295134,72116
1649.49320896763,0.612559753584202,285124,69578.3333333333
1652.47428186793,0.609462339325164,274811,67541.6666666667
1655.45105485129,0.608821801275887,264180,65024.6666666667
1658.42352791769,0.602974587575539,250984,62614
1661.39170106714,0.600623139096906,235469,59062.3333333333
1664.35557429964,0.586953212653892,216668,56084.3333333333
1667.31514761519,0.577669775216205,196183,51879
1670.27042101379,0.564259268818806,174581,47614.3333333333
1674.20409678556,0.545285576051643,143952,41014
1677.14933704461,0.533899079669384,123337,36074
1680.09027738671,0.531913544554488,105172,30902
1683.02691781185,0.531400845138417,88996,26180
1685.95925832005,0.532287173800671,75582,22188.6666666667
1688.8872989113,0.538978410579633,63863,18461.6666666667
1691.81103958559,0.550629880537356,55494,15617.6666666667
1694.73048034294,0.56146617731945,47752,13107.6666666667
1697.64562118333,0.573806633096214,41556,11087.3333333333
1700.55646210678,0.57000649738776,35632,9590.33333333333
