***Scan Config Information***,,,,,,,***Reference Scan Information***,,,,,,,,
Scan Config Name:,Column 1,,,,,,Scan Config Name:,Local New Reference,,,,,,,
Scan Config Type:,Slew,Num Section:,1,,,,Scan Config Type:,Slew,Num Section:,1,,,,,
Section Config Type:,Column,,,,,,Section Config Type:,Column,,,,,,,
Start Wavelength (nm):,900,,,,,,Start Wavelength (nm):,900,,,,,,,
End Wavelength (nm):,1700,,,,,,End Wavelength (nm):,1700,,,,,,,
Pattern Width (nm):,7.03,,,,,,Pattern Width (nm):,7.03,,,,,,,
Exposure (ms):,0.635,,,,,,Exposure (ms):,0.635,,,,,,,
Digital Resolution:,228,,,,,,Digital Resolution:,228,,,,,,,
Num Repeats:,3,,,,,,Num Repeats:,3,,,,,,,
PGA Gain:,64,(FixedPGA),,,,,PGA Gain:,64,(AutoPGA),,,,,,
System Temp (C):,34.84,,,,,,System Temp (C):,29.46,,,,,,,
Humidity (%):,33.9,,,,,,Humidity (%):,52.02,,,,,,,
Lamp Indicator:,1148,,,,,,Lamp Indicator:,1099,,,,,,,
Data Date-Time:,2025/08/09T15:01:21,,,,,,Data Date-Time:,2025/08/09T13:22:04,,,,,,,
Total Measurement Time in sec:,2.4131763,,,,,,,,,,,,,,
,,,,,,,,,,,,,,,
***General Information***,,,,,,,***Calibration Coefficients***,,,,,,,,
Model Name:,NIR-R210,,,,,,Shift Vector Coefficients:,-5.72686255341989,0.0566949379947153,-0.000136804211203387,,,,,
Serial Number:,734R012,(N/A),,,,,Pixel to Wavelength Coefficients:,1812.09528251196,-0.912948081806683,-0.000238884275033469,,,,,
GUI Version:,3.9.8,Revision:,830,,,,Versions (Cal/Ref/Cfg):,1,3,1,,,,,
TIVA Version:,2.4.10,,,,,,***Lamp Usage ***,,,,,,,,
DLPC Version:,2.0.0,,,,,,Total Time(hh:mm:ss):,N/A,,,,,,,
UUID:,D6:65:30:51:9A:41:0D:28,,,,,,***Device/Error/Activation Status***,,,,,,,,
Main Board Version:,D,,,,,,Device Status:,0x00000001,Activation Status:,Not activated,,,,,
Detector Board Version:,B,,,,,,Error status:,0x00000000,Error Code:,0x00000000000000000000000000000000,,,,,
,,,,,,,,,Error Details:,Not found,,,,,
***Scan Data***,,,,,,,,,,,,,,,
Num Scan:,3

Wavelength (nm),Absorbance (AU),Reference Signal (unitless),Sample Signal (unitless)
900.894453969064,0.281334906523775,61165,32001.3333333333
904.808608847648,0.284531945812962,71524,37146.6666666667
910.020793259393,0.284651320544302,81743,42442.3333333333
913.924914998427,0.290304498074005,88693,45455.3333333333
917.82473682051,0.286460953669819,96017,49646.3333333333
921.720258725642,0.293709448282631,105300,53545
925.611480713823,0.29422954781238,115956,58893
929.498402785054,0.296598839716021,129721,65525.6666666667
933.381024939334,0.297865023532685,145333,73198
937.259347176664,0.297502117232197,161102,81208
941.133369497043,0.295265713477163,176880,89621.6666666667
945.003091900472,0.293030661013674,190875,97211.6666666667
948.86851438695,0.292268705684878,204873,104524
954.015722275886,0.292021255954288,222646,113656.333333333
957.871111622812,0.291963719540672,236435,120711.333333333
961.722201052788,0.292796148654715,250209,127499
965.568990565813,0.293729628051147,265026,134759.333333333
969.411480161888,0.295104327103705,277918,140868
973.249669841012,0.295538335033494,291257,147481.666666667
977.083559603186,0.298646286180888,304760,153218.666666667
980.913149448408,0.297855487378849,316097,159208
984.738439376681,0.299223327801307,326323,163841.666666667
988.559429388003,0.298582851363115,334592,168241.333333333
993.64739397673,0.300708934425024,344807,172531
997.458350848501,0.300933962266269,349688,174882.666666667
1001.26500780332,0.299965349458694,353644,177256
1005.06736484119,0.300709869797763,357116,178689.666666667
1008.86542196211,0.301360738770481,359485,179605.666666667
1012.65917916608,0.301438882420387,360943,180301.666666667
1016.44863645309,0.303054462349515,363031,180671.333333333
1020.23379382316,0.302600013961733,363948,181317.333333333
1024.01465127628,0.301706893779666,364282,181857.333333333
1027.79120881244,0.301071554774137,365769,182867
1032.81993010096,0.302013524650883,367653,183410.666666667
1036.58645449757,0.302168255323481,369308,184170.666666667
1040.34867897724,0.301562751600274,370049,184797.666666667
1044.10660353995,0.303357696134242,372221,185115.666666667
1047.86022818571,0.302363172352308,373567,186211
1051.60955291452,0.30232066734849,375404,187145
1055.35457772639,0.302421128790322,377310,188051.666666667
1059.0953026213,0.301642096275325,379148,189307
1062.83172759926,0.300877785772401,381319,190726.333333333
1066.56385266027,0.301377554610007,384184,191938.333333333
1071.53333064858,0.301228580115159,387908,193865.333333333
1075.25542257003,0.300628064397358,390607,195484.333333333
1078.97321457454,0.300726337177497,393646,196960.666666667
1082.6867066621,0.30081801183045,396671,198432.333333333
1086.3958988327,0.300430164797555,399870,200211.333333333
1090.10079108636,0.301957989513388,402904,201022
1093.80138342306,0.301878842778239,405606,202407
1097.49767584282,0.301912888501477,407871,203521.333333333
1101.18966834562,0.301745292575405,411381,205352
1104.87736093148,0.302433648309565,413721,206193
1108.56075360038,0.302690746268957,415453,206933.666666667
1113.46525506588,0.303914641477607,418471,207850.333333333
1117.13861459523,0.302950756339955,419674,208911
1120.80767420763,0.304468370656677,421639,209157
1124.47243390308,0.304952066018966,423459,209826
1128.13289368158,0.306543156341604,424228,209438.333333333
1131.78905354313,0.309654265834278,426045,208834
1135.44091348773,0.312329121970374,426478,207762.666666667
1139.08847351537,0.315758470874033,427601,206671.333333333
1142.73173362607,0.318847092316117,428210,205499
1146.37069381982,0.32418583797164,430333,203994.666666667
1151.21595198511,0.328965791045792,431572,202342.666666667
1154.84487903931,0.33400962369746,433166,200745
1158.46950617655,0.338871556545397,435811,199722.333333333
1162.08983339684,0.343264931748989,437511,198483.333333333
1165.70586070019,0.347387156599969,440470,197938
1169.31758808658,0.350644797959396,443261,197703.666666667
1172.92501555602,0.354512118153708,446330,197307.666666667
1176.52814310851,0.355635638720236,450024,198426.666666667
1180.12697074405,0.359856875316867,453937,198216
1183.72149846264,0.362754200338988,458109,198707.666666667
1188.50751332773,0.366428541447274,464689,199863.666666667
1192.09200790677,0.369232674559825,470015,200853.333333333
1195.67220256885,0.370002633246606,476072,203081.333333333
1199.24809731399,0.370881949258131,482088,205231.666666667
1202.81969214218,0.370935597216691,488677,208011
1206.38698705341,0.372112673509479,496329,210696.333333333
1209.9499820477,0.37270459880646,503908,213622.333333333
1213.50867712503,0.371749673572678,511433,217289.666666667
1217.06307228542,0.369751677443176,519363,221676.333333333
1220.61316752885,0.368239737534023,528308,226280.666666667
1224.15896285534,0.365484052623059,536018,231044.333333333
1228.88000119761,0.361232200786152,547278,238218.666666667
1232.41576338454,0.360044911027446,557050,243136
1235.94722565453,0.357036292418344,566065,248788.333333333
1239.47438800756,0.355990495003825,575725,253644
1242.99725044364,0.354674506626032,584235,258174.333333333
1246.51581296276,0.353537839493525,594054,263201.333333333
1250.03007556494,0.351748475914106,602549,268067.333333333
1253.54003825017,0.351244374380079,612257,272702.666666667
1257.04570101845,0.350464458679175,621056,277119
1260.54706386978,0.350214485607658,630966,281703
1265.20885891184,0.350005398109148,643606,287484.666666667
1268.70018862362,0.350190532001596,652183,291191.666666667
1272.18721841844,0.349646906221882,661425,295688
1275.66994829632,0.349970432982071,669244,298960.666666667
1279.14837825724,0.350017021234355,677027,302405
1282.62250830122,0.34950118770823,683423,305624.666666667
1286.09233842824,0.350180765639517,689796,307992.333333333
1289.55786863831,0.349631226935885,695579,310967.666666667
1293.01909893143,0.349483426721087,699163,312676.333333333
1296.4760293076,0.349670302078811,703715,314576.666666667
1301.07858104946,0.350554375027377,709736,316623
1304.52547828608,0.350987067662734,713970,318194.666666667
1307.96807560575,0.351233563127643,717163,319436.333333333
1311.40637300847,0.352315849149681,719966,319886.666666667
1314.84037049424,0.352814471352118,722284,320548.333333333
1318.27006806305,0.35419644176306,725225,320831
1321.69546571492,0.35629541011639,727780,320409
1325.11656344983,0.357583772524169,730006,320437
1328.5333612678,0.360338445477526,732700,319586
1331.94585916881,0.362756617815462,734345,318525
1336.48916761047,0.36629225839542,736319,316791.666666667
1339.89163237193,0.369369368331196,737558,315084.333333333
1343.28979721644,0.372412465340031,738142,313132
1346.683662144,0.376000020773048,738619,310756.666666667
1350.07322715461,0.379963070104178,738629,307938
1353.45849224827,0.384044763967586,737833,304728.666666667
1356.83945742498,0.387899334078903,736434,301463.333333333
1360.21612268474,0.392143253249213,736474,298548
1363.58848802755,0.396175398354993,735327,295328.333333333
1366.95655345341,0.399096262902047,735097,293257
1370.32031896232,0.402751843559968,734900,290721
1374.79865088116,0.407202747575914,735706,288072.333333333
1378.15238325052,0.411135608373037,734943,285179.333333333
1381.50181570292,0.413558789785605,732762,282751
1384.84694823838,0.418944718145944,731846,278917
1388.18778085688,0.423336911785828,730676,275669
1391.52431355844,0.429402507054121,728938,271199
1394.85654634304,0.437218495839927,727102,265691
1398.18447921069,0.44391125969408,724362,260642
1401.50811216139,0.452652254658552,722247,254702.666666667
1404.82744519514,0.461699386978322,719566,248525.666666667
1409.24653381378,0.476045752190178,716272,239349.333333333
1412.55583370798,0.486682831343113,714694,233043.666666667
1415.86083368523,0.498529083171026,713042,226248.666666667
1419.16153374553,0.509383913637627,711262,220113
1422.45793388888,0.519999214581112,710137,214458.333333333
1425.75003411527,0.530872330593371,709598,208997
1429.03783442472,0.539154192510396,708041,204599.333333333
1432.32133481722,0.547543408452659,708142,200713.666666667
1435.60053529276,0.554610056226291,706756,197087.666666667
1438.87543585136,0.559393825170497,707115,195027.666666667
1443.23528116978,0.565845525089897,706912,192096.666666667
1446.50014858883,0.569062792162937,705956,190421
1449.76071609092,0.571679275821666,705433,189137
1453.01698367606,0.575306313003892,705077,187469.333333333
1456.26895134425,0.57788997952586,703933,186055
1459.5166190955,0.578936345032173,702932,185343.333333333
1462.75998692979,0.580970797538856,700832,183926
1465.99905484713,0.582433227492907,698515,182701.666666667
1469.23382284752,0.583368182287929,696323,181736.666666667
1472.46429093096,0.584925217422711,693306,180301.666666667
1476.76489294917,0.586380619233809,689657,178752.666666667
1479.98532789306,0.585371835831763,686838,178436
1483.20146292,0.585799781439075,684443,177638.666666667
1486.41329802998,0.584296270338213,680351,177189
1489.62083322302,0.583779178010914,676729,176455.666666667
1492.8240684991,0.582662059550915,673732,176126.666666667
1496.02300385824,0.58149382267055,669890,175594
1499.21763930042,0.581173269336898,665764,174641.333333333
1502.40797482566,0.578403338977393,662328,174851.666666667
1505.59401043394,0.577480026277767,658060,174094.666666667
1508.77574612527,0.575799998945917,653668,173603
1513.01137162068,0.573444722481187,647807,172982
1516.18307417246,0.569969201903945,642776,173017.666666667
1519.35047680729,0.568015299409655,636853,172196.333333333
1522.51357952517,0.565655180122065,631257,171613.333333333
1525.6723823261,0.565056139264155,626083,170441.666666667
1528.82688521008,0.562083442156276,619667,169853.666666667
1531.9770881771,0.561578997201275,614140,168534.333333333
1535.12299122718,0.560663969390254,607382,167031.333333333
1538.26459436031,0.559798360091579,601756,165814.333333333
1541.40189757648,0.557748548538684,594204,164508
1545.57827977168,0.555328019321516,584861,162826.333333333
1548.70554984831,0.555392462649071,578079,160914.333333333
1551.82852000798,0.553859955590318,571488,159642
1554.94719025071,0.552631308517064,563266,157791
1558.06156057648,0.551281683223094,555713,156159.666666667
1561.1716309853,0.550380535177528,547023,154037
1564.27740147717,0.550735458326039,540016,151939.666666667
1567.37887205209,0.549540059775352,531678,150006
1570.47604271006,0.54932279297002,523035,147641.333333333
1573.56891345108,0.547606368572135,514017,145670.333333333
1577.68605234607,0.547347470993612,502079,142372
1580.76888994754,0.545909720400007,494135,140584
1583.84742763206,0.544661372206201,484769,138316.333333333
1586.92166539963,0.543418632090485,475460,136049
1589.99160325024,0.541516710699364,466116,133960.666666667
1593.05724118391,0.540787083299086,456969,131552.666666667
1596.11857920063,0.53797944754752,447506,129664
1599.17561730039,0.536838000212816,439245,127605.333333333
1602.2283554832,0.533212209637975,429113,125707
1605.27679374907,0.529955654005526,419968,123954
1609.33468934385,0.525709565356913,407521,121462
1612.37309447016,0.523894828425965,398489,119267.333333333
1615.40719967952,0.521458435728404,389802,117323.666666667
1618.43700497194,0.519180355960901,380551,115141.666666667
1621.4625103474,0.516722440863699,371710,113105
1624.48371580591,0.51455149098562,362463,110844
1627.50062134746,0.51179551097442,353431,108770
1630.51322697207,0.5101133514692,344400,106402
1633.52153267973,0.508127471345723,335271,104056.333333333
1636.52553847044,0.506628042050988,325918,101503.333333333
1639.52524434419,0.504187414486527,316982,99276.6666666667
1643.51816341617,0.503316244371415,305331,95819.6666666667
1646.50783615037,0.499830490838228,295134,93366
1649.49320896763,0.495978065624205,285124,91003
1652.47428186793,0.493089803851641,274811,88296.6666666667
1655.45105485129,0.491744186468292,264180,85144.3333333333
1658.42352791769,0.483940244918036,250984,82358
1661.39170106714,0.474528433162926,235469,78959.6666666667
1664.35557429964,0.465162661196783,216668,74239
1667.31514761519,0.453095342751888,196183,69114
1670.27042101379,0.43795527740337,174581,63685.6666666667
1674.20409678556,0.412409292651655,143952,55694
1677.14933704461,0.403308852409016,123337,48728.6666666667
1680.09027738671,0.401174310041193,105172,41756.6666666667
1683.02691781185,0.394078493833989,88996,35916.3333333333
1685.95925832005,0.395154487500265,75582,30427.3333333333
1688.8872989113,0.39858993374108,63863,25507
1691.81103958559,0.407979803601009,55494,21690.3333333333
1694.73048034294,0.416239975580149,47752,18312.6666666667
1697.64562118333,0.416599751033394,41556,15923.3333333333
1700.55646210678,0.416516691583286,35632,13656
