***Scan Config Information***,,,,,,,***Reference Scan Information***,,,,,,,,
Scan Config Name:,Column 1,,,,,,Scan Config Name:,Local New Reference,,,,,,,
Scan Config Type:,Slew,Num Section:,1,,,,Scan Config Type:,Slew,Num Section:,1,,,,,
Section Config Type:,Column,,,,,,Section Config Type:,Column,,,,,,,
Start Wavelength (nm):,900,,,,,,Start Wavelength (nm):,900,,,,,,,
End Wavelength (nm):,1700,,,,,,End Wavelength (nm):,1700,,,,,,,
Pattern Width (nm):,7.03,,,,,,Pattern Width (nm):,7.03,,,,,,,
Exposure (ms):,0.635,,,,,,Exposure (ms):,0.635,,,,,,,
Digital Resolution:,228,,,,,,Digital Resolution:,228,,,,,,,
Num Repeats:,3,,,,,,Num Repeats:,3,,,,,,,
PGA Gain:,64,(FixedPGA),,,,,PGA Gain:,64,(AutoPGA),,,,,,
System Temp (C):,34.82,,,,,,System Temp (C):,29.46,,,,,,,
Humidity (%):,33.95,,,,,,Humidity (%):,52.02,,,,,,,
Lamp Indicator:,1149,,,,,,Lamp Indicator:,1099,,,,,,,
Data Date-Time:,2025/08/09T15:00:45,,,,,,Data Date-Time:,2025/08/09T13:22:04,,,,,,,
Total Measurement Time in sec:,2.4286701,,,,,,,,,,,,,,
,,,,,,,,,,,,,,,
***General Information***,,,,,,,***Calibration Coefficients***,,,,,,,,
Model Name:,NIR-R210,,,,,,Shift Vector Coefficients:,-5.72686255341989,0.0566949379947153,-0.000136804211203387,,,,,
Serial Number:,734R012,(N/A),,,,,Pixel to Wavelength Coefficients:,1812.09528251196,-0.912948081806683,-0.000238884275033469,,,,,
GUI Version:,3.9.8,Revision:,830,,,,Versions (Cal/Ref/Cfg):,1,3,1,,,,,
TIVA Version:,2.4.10,,,,,,***Lamp Usage ***,,,,,,,,
DLPC Version:,2.0.0,,,,,,Total Time(hh:mm:ss):,N/A,,,,,,,
UUID:,D6:65:30:51:9A:41:0D:28,,,,,,***Device/Error/Activation Status***,,,,,,,,
Main Board Version:,D,,,,,,Device Status:,0x00000001,Activation Status:,Not activated,,,,,
Detector Board Version:,B,,,,,,Error status:,0x00000000,Error Code:,0x00000000000000000000000000000000,,,,,
,,,,,,,,,Error Details:,Not found,,,,,
***Scan Data***,,,,,,,,,,,,,,,
Num Scan:,3

Wavelength (nm),Absorbance (AU),Reference Signal (unitless),Sample Signal (unitless)
900.894453969064,0.456644267622178,61165,21372.6666666667
904.808608847648,0.451520138081703,71524,25289
910.020793259393,0.457169097767996,81743,28528.6666666667
913.924914998427,0.465935801373137,88693,30335.6666666667
917.82473682051,0.464883908554003,96017,32920.3333333333
921.720258725642,0.46991833032445,105300,35687
925.611480713823,0.473005960528479,115956,39020
929.498402785054,0.477999294637997,129721,43153
933.381024939334,0.479266145087668,145333,48205.6666666667
937.259347176664,0.479245318357786,161102,53438.6666666667
941.133369497043,0.481018068196525,176880,58433.3333333333
945.003091900472,0.478805951616005,190875,63378.6666666667
948.86851438695,0.478854484209305,204873,68019
954.015722275886,0.481087334564505,222646,73540.6666666667
957.871111622812,0.487243602714073,236435,76996
961.722201052788,0.489946607215388,250209,80976
965.568990565813,0.493343612027807,265026,85103
969.411480161888,0.496834387661278,277918,88528.3333333333
973.249669841012,0.497341895354301,291257,92669
977.083559603186,0.502199743503753,304760,95886.6666666667
980.913149448408,0.505793728230572,316097,98634
984.738439376681,0.506473372089388,326323,101665.666666667
988.559429388003,0.509210297314464,334592,103587
993.64739397673,0.511664258177857,344807,106148
997.458350848501,0.512543025877755,349688,107433
1001.26500780332,0.51437248310031,353644,108191.666666667
1005.06736484119,0.514875765695867,357116,109127.333333333
1008.86542196211,0.515842482520845,359485,109607
1012.65917916608,0.517081582861999,360943,109738
1016.44863645309,0.519204275619977,363031,109834.666666667
1020.23379382316,0.519454552074541,363948,110048.666666667
1024.01465127628,0.517704837272798,364282,110594.333333333
1027.79120881244,0.519233235949847,365769,110655.666666667
1032.81993010096,0.521491929127954,367653,110648.666666667
1036.58645449757,0.520730997551484,369308,111341.666666667
1040.34867897724,0.51912265011377,370049,111979
1044.10660353995,0.518376283411535,372221,112830
1047.86022818571,0.519856678981855,373567,112852.666666667
1051.60955291452,0.518449506871774,375404,113775.666666667
1055.35457772639,0.520332221903857,377310,113858.666666667
1059.0953026213,0.517734703534696,379148,115099.666666667
1062.83172759926,0.516600889914899,381319,116061.333333333
1066.56385266027,0.517534168705604,384184,116682.333333333
1071.53333064858,0.516370983325937,387908,118129.333333333
1075.25542257003,0.515229437046964,390607,119264.333333333
1078.97321457454,0.514788473795554,393646,120314.333333333
1082.6867066621,0.514261850572692,396671,121386
1086.3958988327,0.515528141580642,399870,122008.666666667
1090.10079108636,0.514835348172328,402904,123130.666666667
1093.80138342306,0.513904688184837,405606,124222.333333333
1097.49767584282,0.514622709268515,407871,124709.666666667
1101.18966834562,0.51460156496853,411381,125789
1104.87736093148,0.514438552698106,413721,126552
1108.56075360038,0.51410194045782,415453,127180.333333333
1113.46525506588,0.514273348310315,418471,128053.666666667
1117.13861459523,0.513462891368794,419674,128661.666666667
1120.80767420763,0.515712188918091,421639,128596.333333333
1124.47243390308,0.516401247695079,423459,128946.666666667
1128.13289368158,0.517045531377283,424228,128989.333333333
1131.78905354313,0.519749839456322,426045,128737.666666667
1135.44091348773,0.523321604230084,426478,127813
1139.08847351537,0.526646072479499,427601,127172.333333333
1142.73173362607,0.532045214775391,428210,125780
1146.37069381982,0.536139044358691,430333,125217.666666667
1151.21595198511,0.541840600457167,431572,123940.333333333
1154.84487903931,0.54621876902463,433166,123150.333333333
1158.46950617655,0.552743798783777,435811,122054.666666667
1162.08983339684,0.5583890884591,437511,120948.333333333
1165.70586070019,0.562022001716776,440470,120752
1169.31758808658,0.567005634689565,443261,120130.666666667
1172.92501555602,0.569808220094022,446330,120184.333333333
1176.52814310851,0.57212490535448,450024,120534.333333333
1180.12697074405,0.577429674329748,453937,120106.333333333
1183.72149846264,0.580576861696994,458109,120335
1188.50751332773,0.587000266487107,464689,120271.333333333
1192.09200790677,0.587534248763976,470015,121500.333333333
1195.67220256885,0.589706756534796,476072,122452
1199.24809731399,0.590929859063749,482088,123650.666666667
1202.81969214218,0.590215559550819,488677,125547
1206.38698705341,0.591823468670941,496329,127041.666666667
1209.9499820477,0.592394929874448,503908,128812
1213.50867712503,0.591318583643757,511433,131060
1217.06307228542,0.588729352592404,519363,133888
1220.61316752885,0.586904807917168,528308,136767.333333333
1224.15896285534,0.582060829619693,536018,140319.666666667
1228.88000119761,0.57711263086597,547278,144909
1232.41576338454,0.575323480642199,557050,148105.333333333
1235.94722565453,0.572333288509906,566065,151542
1239.47438800756,0.57229034213123,575725,154143.333333333
1242.99725044364,0.569772347683477,584235,157331.333333333
1246.51581296276,0.568477180739297,594054,160453.333333333
1250.03007556494,0.5678473978475,602549,162984
1253.54003825017,0.567037637616748,612257,165919
1257.04570101845,0.567388263472641,621056,168167.666666667
1260.54706386978,0.566660351228048,630966,171137.666666667
1265.20885891184,0.567344291866009,643606,174291.333333333
1268.70018862362,0.568007965600848,652183,176344.333333333
1272.18721841844,0.569354432980336,661425,178289.666666667
1275.66994829632,0.569935755631977,669244,180156
1279.14837825724,0.570876762355499,677027,181856.666666667
1282.62250830122,0.570484302713801,683423,183740.666666667
1286.09233842824,0.570606256915858,689796,185402
1289.55786863831,0.570246368371572,695579,187111.333333333
1293.01909893143,0.569832686405602,699163,188254.666666667
1296.4760293076,0.57026990185601,703715,189289.666666667
1301.07858104946,0.572765542611245,709736,189815.333333333
1304.52547828608,0.573242739236028,713970,190738
1307.96807560575,0.573774278079766,717163,191356.666666667
1311.40637300847,0.575080469799473,719966,191527.666666667
1314.84037049424,0.577046756505823,722284,191276.333333333
1318.27006806305,0.577727579632443,725225,191754.333333333
1321.69546571492,0.581230589519311,727780,190884
1325.11656344983,0.583462607489982,730006,190486.333333333
1328.5333612678,0.585346693032753,732700,190361.666666667
1331.94585916881,0.588508702674476,734345,189405
1336.48916761047,0.592742633933638,736319,188071.666666667
1339.89163237193,0.597999245129529,737558,186121.666666667
1343.28979721644,0.601514726350139,738142,184767.333333333
1346.683662144,0.607083842014349,738619,182531
1350.07322715461,0.611007794685235,738629,180891.666666667
1353.45849224827,0.616280928331999,737833,178516
1356.83945742498,0.621570169467516,736434,176020.666666667
1360.21612268474,0.626267192483831,736474,174136.666666667
1363.58848802755,0.632107511952997,735327,171543
1366.95655345341,0.637034049162613,735097,169555
1370.32031896232,0.640999110720604,734900,167969
1374.79865088116,0.648096153788522,735706,165427.666666667
1378.15238325052,0.652464164412729,734943,163602.333333333
1381.50181570292,0.657173334267927,732762,161357.666666667
1384.84694823838,0.663122742477698,731846,158963.333333333
1388.18778085688,0.670401702002069,730676,156071.333333333
1391.52431355844,0.677003034499959,728938,153351.333333333
1394.85654634304,0.686504107961762,727102,149655
1398.18447921069,0.694938979233259,724362,146223.333333333
1401.50811216139,0.706141590437025,722247,142083.666666667
1404.82744519514,0.718307039146103,719566,137646
1409.24653381378,0.733804909525497,716272,132212.666666667
1412.55583370798,0.746774470654776,714694,128040
1415.86083368523,0.759230192699917,713042,124132.333333333
1419.16153374553,0.770906826363458,711262,120537.666666667
1422.45793388888,0.784488424564798,710137,116641.666666667
1425.75003411527,0.796089228603175,709598,113481
1429.03783442472,0.805241747828792,708041,110870.666666667
1432.32133481722,0.8134342475824,708142,108814.333333333
1435.60053529276,0.822364613147319,706756,106391
1438.87543585136,0.828289721380808,707115,105002.666666667
1443.23528116978,0.835950859273311,706912,103137
1446.50014858883,0.840272562968421,705956,101977.666666667
1449.76071609092,0.843293856173317,705433,101195.666666667
1453.01698367606,0.846484091128704,705077,100404.333333333
1456.26895134425,0.848352918393136,703933,99811
1459.5166190955,0.852464177403863,702932,98730
1462.75998692979,0.853674949456216,700832,98161
1465.99905484713,0.8553136820188,698515,97468
1469.23382284752,0.856442146870443,696323,96910
1472.46429093096,0.860320206424134,693306,95632.3333333333
1476.76489294917,0.858801103262651,689657,95462.3333333333
1479.98532789306,0.860817825914586,686838,94631.6666666667
1483.20146292,0.861827667701671,684443,94082.6666666667
1486.41329802998,0.861865681837433,680351,93512
1489.62083322302,0.860019865932975,676729,93410.3333333333
1492.8240684991,0.860617965023915,673732,92868.6666666667
1496.02300385824,0.86125530276594,669890,92203.6666666667
1499.21763930042,0.858760563233193,665764,92163.6666666667
1502.40797482566,0.858755879137714,662328,91689
1505.59401043394,0.856129864762625,658060,91650.6666666667
1508.77574612527,0.856915986976067,653668,90874.3333333333
1513.01137162068,0.853787277801925,647807,90710.6666666667
1516.18307417246,0.85398285015869,642776,89965.6666666667
1519.35047680729,0.85060490713948,636853,89832.6666666667
1522.51357952517,0.848137383703837,631257,89550.6666666667
1525.6723823261,0.847362287868175,626083,88975.3333333333
1528.82688521008,0.844122150435697,619667,88723
1531.9770881771,0.84692658939563,614140,87365.6666666667
1535.12299122718,0.845730106856735,607382,86642.6666666667
1538.26459436031,0.844188673428037,601756,86145.3333333333
1541.40189757648,0.842267554004253,594204,85441.3333333333
1545.57827977168,0.843218239013306,584861,83914
1548.70554984831,0.843081806212027,578079,82967
1551.82852000798,0.841459550398605,571488,82328
1554.94719025071,0.838098295118891,563266,81774
1558.06156057648,0.837645283680267,555713,80761.6666666667
1561.1716309853,0.839044678160987,547023,79243
1564.27740147717,0.840419683910222,540016,77980.6666666667
1567.37887205209,0.838183307051656,531678,77173
1570.47604271006,0.840482188846353,523035,75517.6666666667
1573.56891345108,0.837885619034501,514017,74660.6666666667
1577.68605234607,0.838147802480743,502079,72882.6666666667
1580.76888994754,0.838589014686723,494135,71656.6666666667
1583.84742763206,0.839831277895307,484769,70097.6666666667
1586.92166539963,0.838489443713916,475460,68964.3333333333
1589.99160325024,0.836087297130608,466116,67984
1593.05724118391,0.836821347934333,456969,66537.3333333333
1596.11857920063,0.834900271002013,447506,65448.3333333333
1599.17561730039,0.831402221877462,439245,64759.6666666667
1602.2283554832,0.830713094123488,429113,63366.3333333333
1605.27679374907,0.831909265414694,419968,61845.3333333333
1609.33468934385,0.829324021572858,407521,60370.6666666667
1612.37309447016,0.823904018273122,398489,59774
1615.40719967952,0.825707217422333,389802,58228.6666666667
1618.43700497194,0.82323707881144,380551,57171
1621.4625103474,0.822251524516775,371710,55969.6666666667
1624.48371580591,0.821120237508157,362463,54719.6666666667
1627.50062134746,0.821330341322588,353431,53330.3333333333
1630.51322697207,0.822414905430643,344400,51838
1633.52153267973,0.818755005026103,335271,50891
1636.52553847044,0.817372822145834,325918,49629
1639.52524434419,0.81560339720268,316982,48465.3333333333
1643.51816341617,0.81627626806196,305331,46611.6666666667
1646.50783615037,0.816735962010343,295134,45007.3333333333
1649.49320896763,0.815135764392781,285124,43641.3333333333
1652.47428186793,0.814346451905342,274811,42139.3333333333
1655.45105485129,0.81077875705126,264180,40843.3333333333
1658.42352791769,0.808625974769938,250984,38996
1661.39170106714,0.805496247231097,235469,36850
1664.35557429964,0.78900953318633,216668,35219.6666666667
1667.31514761519,0.781638542780423,196183,32435.6666666667
1670.27042101379,0.770807982666025,174581,29593
1674.20409678556,0.751246280921433,143952,25525.3333333333
1677.14933704461,0.745419113791577,123337,22165.3333333333
1680.09027738671,0.743787016765034,105172,18972
1683.02691781185,0.742445714936388,88996,16103.6666666667
1685.95925832005,0.765054473126643,75582,12982.6666666667
1688.8872989113,0.76824802371103,63863,10889.3333333333
1691.81103958559,0.793426994285335,55494,8929.33333333333
1694.73048034294,0.796732732728646,47752,7625.33333333333
1697.64562118333,0.82757499400526,41556,6181
1700.55646210678,0.833837031422945,35632,5224
