***Scan Config Information***,,,,,,,***Reference Scan Information***,,,,,,,,
Scan Config Name:,Column 1,,,,,,Scan Config Name:,Local New Reference,,,,,,,
Scan Config Type:,Slew,Num Section:,1,,,,Scan Config Type:,Slew,Num Section:,1,,,,,
Section Config Type:,Column,,,,,,Section Config Type:,Column,,,,,,,
Start Wavelength (nm):,900,,,,,,Start Wavelength (nm):,900,,,,,,,
End Wavelength (nm):,1700,,,,,,End Wavelength (nm):,1700,,,,,,,
Pattern Width (nm):,7.03,,,,,,Pattern Width (nm):,7.03,,,,,,,
Exposure (ms):,0.635,,,,,,Exposure (ms):,0.635,,,,,,,
Digital Resolution:,228,,,,,,Digital Resolution:,228,,,,,,,
Num Repeats:,3,,,,,,Num Repeats:,3,,,,,,,
PGA Gain:,64,(FixedPGA),,,,,PGA Gain:,64,(AutoPGA),,,,,,
System Temp (C):,34.41,,,,,,System Temp (C):,29.46,,,,,,,
Humidity (%):,34.85,,,,,,Humidity (%):,52.02,,,,,,,
Lamp Indicator:,1144,,,,,,Lamp Indicator:,1099,,,,,,,
Data Date-Time:,2025/08/09T14:53:30,,,,,,Data Date-Time:,2025/08/09T13:22:04,,,,,,,
Total Measurement Time in sec:,2.4165915,,,,,,,,,,,,,,
,,,,,,,,,,,,,,,
***General Information***,,,,,,,***Calibration Coefficients***,,,,,,,,
Model Name:,NIR-R210,,,,,,Shift Vector Coefficients:,-5.72686255341989,0.0566949379947153,-0.000136804211203387,,,,,
Serial Number:,734R012,(N/A),,,,,Pixel to Wavelength Coefficients:,1812.09528251196,-0.912948081806683,-0.000238884275033469,,,,,
GUI Version:,3.9.8,Revision:,830,,,,Versions (Cal/Ref/Cfg):,1,3,1,,,,,
TIVA Version:,2.4.10,,,,,,***Lamp Usage ***,,,,,,,,
DLPC Version:,2.0.0,,,,,,Total Time(hh:mm:ss):,N/A,,,,,,,
UUID:,D6:65:30:51:9A:41:0D:28,,,,,,***Device/Error/Activation Status***,,,,,,,,
Main Board Version:,D,,,,,,Device Status:,0x00000001,Activation Status:,Not activated,,,,,
Detector Board Version:,B,,,,,,Error status:,0x00000000,Error Code:,0x00000000000000000000000000000000,,,,,
,,,,,,,,,Error Details:,Not found,,,,,
***Scan Data***,,,,,,,,,,,,,,,
Num Scan:,3

Wavelength (nm),Absorbance (AU),Reference Signal (unitless),Sample Signal (unitless)
900.894453969064,0.311607144742349,61165,29846.6666666667
904.808608847648,0.310276223885163,71524,35008.6666666667
910.020793259393,0.311075134153202,81743,39937
913.924914998427,0.317041278924635,88693,42741.3333333333
917.82473682051,0.317640359779621,96017,46207
921.720258725642,0.318226360029254,105300,50606
925.611480713823,0.323309807188694,115956,55078.6666666667
929.498402785054,0.326171353378751,129721,61212.3333333333
933.381024939334,0.327665963288805,145333,68343.6666666667
937.259347176664,0.325425321219945,161102,76151
941.133369497043,0.325209323082754,176880,83650.6666666667
945.003091900472,0.322244096017592,190875,90887.6666666667
948.86851438695,0.323361472074147,204873,97302.3333333333
954.015722275886,0.324521639359488,222646,105461.333333333
957.871111622812,0.327041046939868,236435,111345
961.722201052788,0.329308620101859,250209,117218
965.568990565813,0.334746060045899,265026,122614.666666667
969.411480161888,0.336008325269716,277918,128206
973.249669841012,0.339442964462848,291257,133301
977.083559603186,0.342302329317325,304760,138565.666666667
980.913149448408,0.345265554081691,316097,142743
984.738439376681,0.347506802324019,326323,146602.333333333
988.559429388003,0.347931408121662,334592,150170.333333333
993.64739397673,0.351263091082524,344807,153572.333333333
997.458350848501,0.352853377681737,349688,155177
1001.26500780332,0.353295025089319,353644,156773
1005.06736484119,0.354025799766939,357116,158046
1008.86542196211,0.3555830117107,359485,158525
1012.65917916608,0.355060211013665,360943,159359.666666667
1016.44863645309,0.357678866110329,363031,159318
1020.23379382316,0.358053619180029,363948,159582.666666667
1024.01465127628,0.358313223116138,364282,159633.666666667
1027.79120881244,0.358007946192464,365769,160398
1032.81993010096,0.359283530291397,367653,160751.333333333
1036.58645449757,0.359049494771725,369308,161562
1040.34867897724,0.358165546778458,370049,162216
1044.10660353995,0.357808481387955,372221,163302.333333333
1047.86022818571,0.358594939084633,373567,163596.333333333
1051.60955291452,0.35791869736368,375404,164657
1055.35457772639,0.357499884115665,377310,165652.666666667
1059.0953026213,0.356146913599104,379148,166979
1062.83172759926,0.356343813897528,381319,167859
1066.56385266027,0.356269839360108,384184,169149
1071.53333064858,0.355620045676834,387908,171044.333333333
1075.25542257003,0.35527582076986,390607,172371
1078.97321457454,0.354522484558942,393646,174013.666666667
1082.6867066621,0.353268321339851,396671,175858
1086.3958988327,0.354274468750534,399870,176866
1090.10079108636,0.354286568057849,402904,178203
1093.80138342306,0.352988722535037,405606,179935
1097.49767584282,0.353449327212603,407871,180748
1101.18966834562,0.354460079945799,411381,181879.666666667
1104.87736093148,0.353315338518961,413721,183397
1108.56075360038,0.353019343805339,415453,184290.333333333
1113.46525506588,0.353566568675762,418471,185395.333333333
1117.13861459523,0.353255935436421,419674,186061.333333333
1120.80767420763,0.353441474385371,421639,186852.666666667
1124.47243390308,0.354017834478115,423459,187410.333333333
1128.13289368158,0.355641617002714,424228,187050
1131.78905354313,0.35833286629829,426045,186690.666666667
1135.44091348773,0.36139822652727,426478,185566
1139.08847351537,0.365995932559127,427601,184095.333333333
1142.73173362607,0.369595093737074,428210,182836
1146.37069381982,0.375112307010294,430333,181423
1151.21595198511,0.381510112207448,431572,179284.666666667
1154.84487903931,0.387797048170514,433166,177360.666666667
1158.46950617655,0.393540475927739,435811,176099.333333333
1162.08983339684,0.399325471426022,437511,174447
1165.70586070019,0.403969858991781,440470,173758.666666667
1169.31758808658,0.407954527599783,443261,173262.666666667
1172.92501555602,0.411942308840773,446330,172867.666666667
1176.52814310851,0.414656027673846,450024,173212.666666667
1180.12697074405,0.418650848354871,453937,173119
1183.72149846264,0.422822317569328,458109,173040
1188.50751332773,0.428155878929338,464689,173383
1192.09200790677,0.431042792337924,470015,174208.333333333
1195.67220256885,0.433643050325005,476072,175400
1199.24809731399,0.434392275025991,482088,177310.333333333
1202.81969214218,0.434578561509059,488677,179656.666666667
1206.38698705341,0.435795314341699,496329,181959.333333333
1209.9499820477,0.436003509239747,503908,184649.333333333
1213.50867712503,0.434513100048787,511433,188051
1217.06307228542,0.431825344238981,519363,192152.333333333
1220.61316752885,0.428910644918321,528308,196778
1224.15896285534,0.425117751374059,536018,201401
1228.88000119761,0.419621589936932,547278,208250.666666667
1232.41576338454,0.41662718361717,557050,213435.666666667
1235.94722565453,0.414370631823597,566065,218019.666666667
1239.47438800756,0.412643757044127,575725,222623.666666667
1242.99725044364,0.410208554600518,584235,227184.666666667
1246.51581296276,0.409021742684333,594054,231635
1250.03007556494,0.407984861636727,602549,235509
1253.54003825017,0.406569937999304,612257,240084.333333333
1257.04570101845,0.406062622384956,621056,243819.333333333
1260.54706386978,0.406395661287867,630966,247520
1265.20885891184,0.406717178377279,643606,252291.666666667
1268.70018862362,0.406945708472559,652183,255519.333333333
1272.18721841844,0.407873358451809,661425,258587.333333333
1275.66994829632,0.407277117088923,669244,262003.666666667
1279.14837825724,0.408201110897382,677027,264487.333333333
1282.62250830122,0.408024374370692,683423,267094.666666667
1286.09233842824,0.407661556617046,689796,269810.666666667
1289.55786863831,0.407666869442295,695579,272069.333333333
1293.01909893143,0.406910831479366,699163,273947.666666667
1296.4760293076,0.407156992221538,703715,275575
1301.07858104946,0.408370460422628,709736,277157.333333333
1304.52547828608,0.408496768302669,713970,278729.666666667
1307.96807560575,0.408825529031394,717163,279764.333333333
1311.40637300847,0.409652222448241,719966,280323.666666667
1314.84037049424,0.410996074031627,722284,280357.333333333
1318.27006806305,0.412331448510513,725225,280634.666666667
1321.69546571492,0.414575903008661,727780,280171.666666667
1325.11656344983,0.417323916657179,730006,279256
1328.5333612678,0.419258171901413,732700,279041
1331.94585916881,0.422548479033747,734345,277556.666666667
1336.48916761047,0.426568335941488,736319,275738.666666667
1339.89163237193,0.430762634137575,737558,273548
1343.28979721644,0.435106528571056,738142,271040
1346.683662144,0.439586727223598,738619,268431.666666667
1350.07322715461,0.444613264145205,738629,265346.333333333
1353.45849224827,0.450167629057446,737833,261692
1356.83945742498,0.454929287531113,736434,258347.666666667
1360.21612268474,0.460640515502031,736474,254986.333333333
1363.58848802755,0.465717519929904,735327,251630.333333333
1366.95655345341,0.469994750683368,735097,249086.333333333
1370.32031896232,0.47445889615281,734900,246473
1374.79865088116,0.481363209577089,735706,242851.666666667
1378.15238325052,0.487117417925403,734943,239406.666666667
1381.50181570292,0.492039895131834,732762,236006
1384.84694823838,0.497405636514149,731846,232816.666666667
1388.18778085688,0.504804428174536,730676,228518
1391.52431355844,0.511969113656071,728938,224244.333333333
1394.85654634304,0.521882935882801,727102,218631.333333333
1398.18447921069,0.53173920166866,724362,212920
1401.50811216139,0.542507744728935,722247,207099
1404.82744519514,0.554332159611539,719566,200788.333333333
1409.24653381378,0.571968299694109,716272,191915.333333333
1412.55583370798,0.584910837187936,714694,185870
1415.86083368523,0.599485574170723,713042,179320.333333333
1419.16153374553,0.613831234252209,711262,173060.666666667
1422.45793388888,0.62629316940229,710137,167899.333333333
1425.75003411527,0.637077796916078,709598,163657
1429.03783442472,0.647719057751437,708041,159345.333333333
1432.32133481722,0.657240810617546,708142,155912
1435.60053529276,0.665524332592703,706756,152667
1438.87543585136,0.670642547515589,707115,150955
1443.23528116978,0.679260169302877,706912,147946.666666667
1446.50014858883,0.682470888454071,705956,146658.333333333
1449.76071609092,0.68624794792636,705433,145280.666666667
1453.01698367606,0.688922064938649,705077,144316
1456.26895134425,0.690421244441899,703933,143585.333333333
1459.5166190955,0.694140991266543,702932,142158.333333333
1462.75998692979,0.697019494051618,700832,140797.333333333
1465.99905484713,0.697638416230916,698515,140132
1469.23382284752,0.700650789295198,696323,138726.666666667
1472.46429093096,0.701060558814753,693306,137995.333333333
1476.76489294917,0.701653772613679,689657,137081.666666667
1479.98532789306,0.704286202234864,686838,135696.333333333
1483.20146292,0.702914286526615,684443,135651
1486.41329802998,0.702993737612446,680351,134815.333333333
1489.62083322302,0.701792612600186,676729,134469
1492.8240684991,0.700721715033181,673732,134204
1496.02300385824,0.701146196010006,669890,133308.333333333
1499.21763930042,0.700347941360693,665764,132731
1502.40797482566,0.697927368045868,662328,132784
1505.59401043394,0.696220088408406,658060,132448
1508.77574612527,0.694651709152242,653668,132040
1513.01137162068,0.691692815102406,647807,131750.666666667
1516.18307417246,0.690300188338888,642776,131147.333333333
1519.35047680729,0.686833107630867,636853,130980.333333333
1522.51357952517,0.685793179891388,631257,130140.666666667
1525.6723823261,0.684266016531139,626083,129528.666666667
1528.82688521008,0.680687497430571,619667,129262
1531.9770881771,0.680225813945674,614140,128245.333333333
1535.12299122718,0.679114813397853,607382,127159
1538.26459436031,0.678813269587762,601756,126068.666666667
1541.40189757648,0.67711242559078,594204,124975
1545.57827977168,0.673654327113466,584861,123993.333333333
1548.70554984831,0.673543956930152,578079,122586.666666667
1551.82852000798,0.67300551109216,571488,121339.333333333
1554.94719025071,0.669561933908421,563266,120545.666666667
1558.06156057648,0.66891813219916,555713,119105.666666667
1561.1716309853,0.666328507030962,547023,117944.333333333
1564.27740147717,0.666626553805932,540016,116353.666666667
1567.37887205209,0.665600889633179,531678,114828
1570.47604271006,0.667397531537618,523035,112495
1573.56891345108,0.664880506459062,514017,111198
1577.68605234607,0.661663439458892,502079,109423
1580.76888994754,0.663952078774311,494135,107125.666666667
1583.84742763206,0.66234824971707,484769,105484
1586.92166539963,0.660356344177409,475460,103934
1589.99160325024,0.658697630048002,466116,102281.333333333
1593.05724118391,0.65863055142228,456969,100289.666666667
1596.11857920063,0.653386263990853,447506,99406
1599.17561730039,0.65122231914195,439245,98058.3333333333
1602.2283554832,0.64870192321849,429113,96354
1605.27679374907,0.64526103276576,419968,95050.6666666667
1609.33468934385,0.640625365626024,407521,93223.3333333333
1612.37309447016,0.639221546882155,398489,91452.3333333333
1615.40719967952,0.637999979010533,389802,89710.6666666667
1618.43700497194,0.635312094786557,380551,88125.3333333333
1621.4625103474,0.632637877803092,371710,86609.6666666667
1624.48371580591,0.628051674630433,362463,85351.6666666667
1627.50062134746,0.62698413109193,353431,83429.6666666667
1630.51322697207,0.624851717823197,344400,81698
1633.52153267973,0.622903568641658,335271,79890
1636.52553847044,0.619884932956689,325918,78203
1639.52524434419,0.618849814832844,316982,76240.3333333333
1643.51816341617,0.617875383893753,305331,73603
1646.50783615037,0.615940025841295,295134,71462.6666666667
1649.49320896763,0.611952642313347,285124,69675.6666666667
1652.47428186793,0.607891969571477,274811,67786.3333333333
1655.45105485129,0.607053267238706,264180,65290
1658.42352791769,0.597945122855213,250984,63343.3333333333
1661.39170106714,0.59477768023267,235469,59862.6666666667
1664.35557429964,0.581145799036752,216668,56839.3333333333
1667.31514761519,0.570754623217127,196183,52711.6666666667
1670.27042101379,0.55399860113859,174581,48752.6666666667
1674.20409678556,0.532730334649905,143952,42217
1677.14933704461,0.527197184737955,123337,36635
1680.09027738671,0.526573228113747,105172,31284.3333333333
1683.02691781185,0.520685071913966,88996,26834
1685.95925832005,0.518981341437256,75582,22879
1688.8872989113,0.532155404235829,63863,18754
1691.81103958559,0.537914973811195,55494,16081.6666666667
1694.73048034294,0.544591309964634,47752,13627
1697.64562118333,0.559663920202622,41556,11454.3333333333
1700.55646210678,0.566473611773893,35632,9668.66666666667
