***Scan Config Information***,,,,,,,***Reference Scan Information***,,,,,,,,
Scan Config Name:,Column 1,,,,,,Scan Config Name:,Local New Reference,,,,,,,
Scan Config Type:,Slew,Num Section:,1,,,,Scan Config Type:,Slew,Num Section:,1,,,,,
Section Config Type:,Column,,,,,,Section Config Type:,Column,,,,,,,
Start Wavelength (nm):,900,,,,,,Start Wavelength (nm):,900,,,,,,,
End Wavelength (nm):,1700,,,,,,End Wavelength (nm):,1700,,,,,,,
Pattern Width (nm):,7.03,,,,,,Pattern Width (nm):,7.03,,,,,,,
Exposure (ms):,0.635,,,,,,Exposure (ms):,0.635,,,,,,,
Digital Resolution:,228,,,,,,Digital Resolution:,228,,,,,,,
Num Repeats:,3,,,,,,Num Repeats:,3,,,,,,,
PGA Gain:,64,(FixedPGA),,,,,PGA Gain:,64,(AutoPGA),,,,,,
System Temp (C):,34.72,,,,,,System Temp (C):,29.46,,,,,,,
Humidity (%):,34.17,,,,,,Humidity (%):,52.02,,,,,,,
Lamp Indicator:,1148,,,,,,Lamp Indicator:,1099,,,,,,,
Data Date-Time:,2025/08/09T14:58:26,,,,,,Data Date-Time:,2025/08/09T13:22:04,,,,,,,
Total Measurement Time in sec:,2.4266893,,,,,,,,,,,,,,
,,,,,,,,,,,,,,,
***General Information***,,,,,,,***Calibration Coefficients***,,,,,,,,
Model Name:,NIR-R210,,,,,,Shift Vector Coefficients:,-5.72686255341989,0.0566949379947153,-0.000136804211203387,,,,,
Serial Number:,734R012,(N/A),,,,,Pixel to Wavelength Coefficients:,1812.09528251196,-0.912948081806683,-0.000238884275033469,,,,,
GUI Version:,3.9.8,Revision:,830,,,,Versions (Cal/Ref/Cfg):,1,3,1,,,,,
TIVA Version:,2.4.10,,,,,,***Lamp Usage ***,,,,,,,,
DLPC Version:,2.0.0,,,,,,Total Time(hh:mm:ss):,N/A,,,,,,,
UUID:,D6:65:30:51:9A:41:0D:28,,,,,,***Device/Error/Activation Status***,,,,,,,,
Main Board Version:,D,,,,,,Device Status:,0x00000001,Activation Status:,Not activated,,,,,
Detector Board Version:,B,,,,,,Error status:,0x00000000,Error Code:,0x00000000000000000000000000000000,,,,,
,,,,,,,,,Error Details:,Not found,,,,,
***Scan Data***,,,,,,,,,,,,,,,
Num Scan:,3

Wavelength (nm),Absorbance (AU),Reference Signal (unitless),Sample Signal (unitless)
900.894453969064,0.295898458868882,61165,30946
904.808608847648,0.294852354993235,71524,36274.3333333333
910.020793259393,0.296339311437685,81743,41315.3333333333
913.924914998427,0.301116510948059,88693,44337.6666666667
917.82473682051,0.303426298994362,96017,47744.3333333333
921.720258725642,0.307380969932452,105300,51885.6666666667
925.611480713823,0.308865593254975,115956,56941.3333333333
929.498402785054,0.314437900788999,129721,62888.6666666667
933.381024939334,0.314684663913182,145333,70417.3333333333
937.259347176664,0.313446416387742,161102,78280.6666666667
941.133369497043,0.312453695698812,176880,86144
945.003091900472,0.308958477758251,190875,93711
948.86851438695,0.30859616260304,204873,100667.333333333
954.015722275886,0.309292843734266,222646,109225
957.871111622812,0.310727635151149,236435,115607
961.722201052788,0.312351477801434,250209,121885.333333333
965.568990565813,0.315412878185153,265026,128196.333333333
969.411480161888,0.315213765596921,277918,134494
973.249669841012,0.316910295183558,291257,140399.666666667
977.083559603186,0.320743897132723,304760,145617.666666667
980.913149448408,0.322579275596808,316097,150397.666666667
984.738439376681,0.322212507334472,326323,155394.333333333
988.559429388003,0.323511018797604,334592,158856.333333333
993.64739397673,0.326219663914537,344807,162688.333333333
997.458350848501,0.325369343428767,349688,165314.666666667
1001.26500780332,0.326788774667294,353644,166639.333333333
1005.06736484119,0.327811210257445,357116,167879.666666667
1008.86542196211,0.32827231308917,359485,168814
1012.65917916608,0.328459420474108,360943,169425.666666667
1016.44863645309,0.330402647888973,363031,169645
1020.23379382316,0.331307167017161,363948,169719.666666667
1024.01465127628,0.330513030791373,364282,170186.333333333
1027.79120881244,0.330605469179734,365769,170844.666666667
1032.81993010096,0.331631738379993,367653,171319.333333333
1036.58645449757,0.331251336763624,369308,172241.333333333
1040.34867897724,0.329802461694951,370049,173163.666666667
1044.10660353995,0.330937717904147,372221,173725.333333333
1047.86022818571,0.328873239952111,373567,175184.333333333
1051.60955291452,0.329606856909553,375404,175748.666666667
1055.35457772639,0.329752704043814,377310,176581.666666667
1059.0953026213,0.328345665127816,379148,178017.666666667
1062.83172759926,0.328800310360774,381319,178849.666666667
1066.56385266027,0.328293913725706,384184,180403.666666667
1071.53333064858,0.328159706207352,387908,182208.666666667
1075.25542257003,0.327042590714255,390607,183949
1078.97321457454,0.326824365561798,393646,185473.333333333
1082.6867066621,0.327217129095137,396671,186729.666666667
1086.3958988327,0.326542962342976,399870,188528
1090.10079108636,0.327010639493161,402904,189754
1093.80138342306,0.32686489517903,405606,191090.666666667
1097.49767584282,0.327269102534446,407871,191979
1101.18966834562,0.326982345153236,411381,193759
1104.87736093148,0.327389946205637,413721,194678.333333333
1108.56075360038,0.328102903392068,415453,195172.666666667
1113.46525506588,0.329018015854783,418471,196176.666666667
1117.13861459523,0.329463322254231,419674,196539
1120.80767420763,0.330334950023707,421639,197063.333333333
1124.47243390308,0.332139433042149,423459,197093.333333333
1128.13289368158,0.334348770199985,424228,196449.333333333
1131.78905354313,0.338549435469943,426045,195391.666666667
1135.44091348773,0.341918087057566,426478,194079
1139.08847351537,0.347753317429575,427601,191993
1142.73173362607,0.35254144285981,428210,190158.333333333
1146.37069381982,0.359460495634568,430333,188080.666666667
1151.21595198511,0.368126527418062,431572,184895.666666667
1154.84487903931,0.373476100640932,433166,183306.666666667
1158.46950617655,0.38082054279269,435811,181333.333333333
1162.08983339684,0.387533042753753,437511,179248.666666667
1165.70586070019,0.393360534602056,440470,178055.666666667
1169.31758808658,0.398996342870388,443261,176873.666666667
1172.92501555602,0.403423474070668,446330,176292
1176.52814310851,0.40742946465057,450024,176119
1180.12697074405,0.413558993680617,453937,175160.666666667
1183.72149846264,0.417953111033204,458109,174991
1188.50751332773,0.423815897075434,464689,175124.333333333
1192.09200790677,0.425957131077286,470015,176260.333333333
1195.67220256885,0.428493040628345,476072,177492.333333333
1199.24809731399,0.428504136058975,482088,179730.666666667
1202.81969214218,0.428530736937346,488677,182176
1206.38698705341,0.429649326473336,496329,184552.666666667
1209.9499820477,0.428523100071702,503908,187857.333333333
1213.50867712503,0.426344889529746,511433,191621.333333333
1217.06307228542,0.424604979589634,519363,195373.666666667
1220.61316752885,0.421230811682478,528308,200288.666666667
1224.15896285534,0.416750233588375,536018,205319
1228.88000119761,0.410562345916149,547278,212640.333333333
1232.41576338454,0.408172755765438,557050,217631.333333333
1235.94722565453,0.404923827888911,566065,222814
1239.47438800756,0.40262133463056,575725,227821
1242.99725044364,0.400806411384208,584235,232156.666666667
1246.51581296276,0.399384319464948,594054,236832.666666667
1250.03007556494,0.396443285447781,602549,241851.666666667
1253.54003825017,0.395439372691291,612257,246317
1257.04570101845,0.394885696078593,621056,250175.666666667
1260.54706386978,0.394532669275471,630966,254374.333333333
1265.20885891184,0.393636157334622,643606,260006.333333333
1268.70018862362,0.394048389476499,652183,263221.333333333
1272.18721841844,0.395994803945239,661425,265757.666666667
1275.66994829632,0.395630443447192,669244,269125
1279.14837825724,0.396117457969783,677027,271949.666666667
1282.62250830122,0.395675496131403,683423,274798.333333333
1286.09233842824,0.395094750040998,689796,277732
1289.55786863831,0.395004928195258,695579,280118.333333333
1293.01909893143,0.394364238102158,699163,281977.333333333
1296.4760293076,0.395011265437087,703715,283390.666666667
1301.07858104946,0.395375635230365,709736,285575.666666667
1304.52547828608,0.396840413033392,713970,286312
1307.96807560575,0.397513591969283,717163,287147
1311.40637300847,0.398825223798287,719966,287400
1314.84037049424,0.399953342257952,722284,287577.333333333
1318.27006806305,0.401817798004548,725225,287511.333333333
1321.69546571492,0.404567374374621,727780,286703.333333333
1325.11656344983,0.407476491018433,730006,285660.333333333
1328.5333612678,0.410565674774597,732700,284682.333333333
1331.94585916881,0.413589698023937,734345,283341.666666667
1336.48916761047,0.418789042139978,736319,280722.333333333
1339.89163237193,0.423575929221819,737558,278112.333333333
1343.28979721644,0.429089474899161,738142,274821.333333333
1346.683662144,0.433419088676861,738619,272271
1350.07322715461,0.439268070520995,738629,268632.333333333
1353.45849224827,0.445421855453709,737833,264567.333333333
1356.83945742498,0.451696926265708,736434,260277.666666667
1360.21612268474,0.457397259696092,736474,256897.666666667
1363.58848802755,0.462842465487075,735327,253301.666666667
1366.95655345341,0.468096691338869,735097,250177.333333333
1370.32031896232,0.473478549005421,734900,247030
1374.79865088116,0.480990804348675,735706,243060
1378.15238325052,0.486633337780151,734943,239673.666666667
1381.50181570292,0.491800737064667,732762,236136
1384.84694823838,0.499466804369471,731846,231714.333333333
1388.18778085688,0.506923560049046,730676,227405.666666667
1391.52431355844,0.51683740775096,728938,221744.666666667
1394.85654634304,0.527466089733628,727102,215838.666666667
1398.18447921069,0.539108971610455,724362,209337.333333333
1401.50811216139,0.550712176067379,722247,203223.333333333
1404.82744519514,0.565431729102663,719566,195721.666666667
1409.24653381378,0.583445436869642,716272,186910
1412.55583370798,0.599761414339942,714694,179621.666666667
1415.86083368523,0.61380728882174,713042,173503.333333333
1419.16153374553,0.628349395690543,711262,167371
1422.45793388888,0.641474293973447,710137,162131.666666667
1425.75003411527,0.654893333371848,709598,157079.333333333
1429.03783442472,0.664176428373302,708041,153420
1432.32133481722,0.674332240976062,708142,149895.333333333
1435.60053529276,0.683383462490863,706756,146516.333333333
1438.87543585136,0.690712562689346,707115,144137.666666667
1443.23528116978,0.697431930354679,706912,141884
1446.50014858883,0.702110167167889,705956,140174
1449.76071609092,0.705255629010486,705433,139059.333333333
1453.01698367606,0.707791359635079,705077,138180
1456.26895134425,0.711016859038434,703933,136935
1459.5166190955,0.713479799113555,702932,135967
1462.75998692979,0.714801086908374,700832,135149
1465.99905484713,0.717640648089751,698515,133824.333333333
1469.23382284752,0.719690069164064,696323,132776.333333333
1472.46429093096,0.720307161560915,693306,132013.333333333
1476.76489294917,0.723010434741764,689657,130503.666666667
1479.98532789306,0.722819659023255,686838,130027.333333333
1483.20146292,0.724647710868312,684443,129029.666666667
1486.41329802998,0.723492058874491,680351,128600
1489.62083322302,0.723685748795409,676729,127858.333333333
1492.8240684991,0.722915682762573,673732,127518
1496.02300385824,0.722064149208011,669890,127039.666666667
1499.21763930042,0.720492279837333,665764,126715
1502.40797482566,0.719147412632099,662328,126452
1505.59401043394,0.717308242691946,658060,126170.333333333
1508.77574612527,0.715909098198893,653668,125732.666666667
1513.01137162068,0.713242773179285,647807,125372.666666667
1516.18307417246,0.712042307801274,642776,124743.333333333
1519.35047680729,0.707743422988854,636853,124823.333333333
1522.51357952517,0.706616440413393,631257,124048
1525.6723823261,0.705483368962673,626083,123352.666666667
1528.82688521008,0.702199120912802,619667,123015.333333333
1531.9770881771,0.702074896384413,614140,121953
1535.12299122718,0.700175542983582,607382,121139.666666667
1538.26459436031,0.698486245732431,601756,120485.333333333
1541.40189757648,0.695626201269427,594204,119759.333333333
1545.57827977168,0.694074036444713,584861,118298.333333333
1548.70554984831,0.693284444922732,578079,117139.333333333
1551.82852000798,0.691519522388462,571488,116275.333333333
1554.94719025071,0.689849563617913,563266,115044
1558.06156057648,0.687729881441299,555713,114056.666666667
1561.1716309853,0.684802894099833,547023,113032.333333333
1564.27740147717,0.685758011063897,540016,111339.333333333
1567.37887205209,0.68543942341037,531678,109700.666666667
1570.47604271006,0.685673019945029,523035,107859.333333333
1573.56891345108,0.683655061542252,514017,106493.333333333
1577.68605234607,0.683632940817657,502079,104025.333333333
1580.76888994754,0.682823849534511,494135,102570.333333333
1583.84742763206,0.682013993190692,484769,100814
1586.92166539963,0.679839757877547,475460,99374.3333333333
1589.99160325024,0.677041983578341,466116,98051
1593.05724118391,0.674905117075566,456969,96601
1596.11857920063,0.67176065091969,447506,95288
1599.17561730039,0.67104140113574,439245,93684
1602.2283554832,0.667061102521036,429113,92365.6666666667
1605.27679374907,0.66442782214221,419968,90947
1609.33468934385,0.659811106504618,407521,89194.6666666667
1612.37309447016,0.655264643608647,398489,88135.6666666667
1615.40719967952,0.653940100064662,389802,86477.6666666667
1618.43700497194,0.651953855941773,380551,84812.3333333333
1621.4625103474,0.64886465005543,371710,83433.3333333333
1624.48371580591,0.644508113206199,362463,82178
1627.50062134746,0.644034614229123,353431,80217.6666666667
1630.51322697207,0.64059204230234,344400,78790
1633.52153267973,0.640859278886971,335271,76654.3333333333
1636.52553847044,0.6372005519997,325918,75146.3333333333
1639.52524434419,0.636391037088456,316982,73222.3333333333
1643.51816341617,0.633049958168455,305331,71075.6666666667
1646.50783615037,0.631489172568346,295134,68949.3333333333
1649.49320896763,0.627752834817095,285124,67186.3333333333
1652.47428186793,0.624369297148166,274811,65262.6666666667
1655.45105485129,0.620750153060286,264180,63263
1658.42352791769,0.615176148495102,250984,60879.3333333333
1661.39170106714,0.609632878562675,235469,57849.6666666667
1664.35557429964,0.599900591090481,216668,54437
1667.31514761519,0.585753075987663,196183,50922.3333333333
1670.27042101379,0.572726597064581,174581,46695
1674.20409678556,0.551209714938716,143952,40458.3333333333
1677.14933704461,0.545617198542806,123337,35113.6666666667
1680.09027738671,0.542348814751854,105172,30168.3333333333
1683.02691781185,0.548360757607821,88996,25177.3333333333
1685.95925832005,0.541205454902476,75582,21737.6666666667
1688.8872989113,0.543106851016955,63863,18287
1691.81103958559,0.563957635404096,55494,15145.6666666667
1694.73048034294,0.564636385930036,47752,13012.3333333333
1697.64562118333,0.566863990697754,41556,11266
1700.55646210678,0.569252408988301,35632,9607
